Data from backuniphase1103p11777_USB4C031521__0__12-12-07-080.txt Node

Date: Wed May 06 12:12:07 CEST 2026
User: FIDOPA_3
Spectrometer: USB4C03152
Scans to average: 1
Trigger mode: 4
Integration Time (sec): 1.000000E-5
Electric dark correction enabled: true
Boxcar width: 0
XAxis mode: Wavelengths
Number of Pixels in Spectrum: 3648
>>>>>Begin Spectral Data<<<<<
445.929	-27.98891
446.14	-27.98891
446.351	-27.98891
446.562	-21.845
446.773	19.11437
446.984	2.73062
447.194	8.87453
447.405	-23.89297
447.616	-54.6125
447.827	12.97047
448.038	-7.50922
448.249	37.54609
448.459	-11.60516
448.67	8.87453
448.881	4.77859
449.092	51.88187
449.303	-30.03688
449.513	-17.74906
449.724	-1.36531
449.935	21.16234
450.146	8.87453
450.356	41.64203
450.567	-3.41328
450.778	-25.94094
450.988	8.87453
451.199	-66.90031
451.41	-38.22875
451.62	94.88922
451.831	-52.56453
452.042	-81.23609
452.252	21.16234
452.463	-21.845
452.674	49.83391
452.884	-3.41328
453.095	-21.845
453.305	-21.845
453.516	-58.70844
453.727	-58.70844
453.937	51.88187
454.148	15.01844
454.358	-13.65313
454.569	74.40953
454.779	19.11437
454.99	33.45016
455.2	0.68266
455.411	45.73797
455.621	-23.89297
455.832	6.82656
456.042	-15.70109
456.253	0.68266
456.463	60.07375
456.674	45.73797
456.884	10.9225
457.095	-79.18813
457.305	19.11437
457.515	-77.14016
457.726	0.68266
457.936	0.68266
458.147	-50.51656
458.357	-85.33203
458.567	10.9225
458.778	8.87453
458.988	2.73062
459.198	35.49812
459.409	6.82656
459.619	-40.27672
459.829	-5.46125
460.039	68.26562
460.25	12.97047
460.46	27.30625
460.67	80.55344
460.881	19.11437
461.091	23.21031
461.301	19.11437
461.511	-11.60516
461.721	-38.22875
461.932	-17.74906
462.142	23.21031
462.352	29.35422
462.562	-15.70109
462.772	8.87453
462.983	12.97047
463.193	-30.03688
463.403	-30.03688
463.613	27.30625
463.823	-21.845
464.033	-1.36531
464.243	-42.32469
464.453	-66.90031
464.664	-60.75641
464.874	19.11437
465.084	-7.50922
465.294	53.92984
465.504	37.54609
465.714	-23.89297
465.924	0.68266
466.134	39.59406
466.344	39.59406
466.554	35.49812
466.764	39.59406
466.974	-44.37266
467.184	-66.90031
467.394	-73.04422
467.604	-38.22875
467.814	-68.94828
468.024	-13.65313
468.233	-15.70109
468.443	-62.80438
468.653	2.73062
468.863	35.49812
469.073	68.26562
469.283	-42.32469
469.493	-7.50922
469.703	25.25828
469.912	2.73062
470.122	29.35422
470.332	45.73797
470.542	-50.51656
470.752	-21.845
470.962	-27.98891
471.171	-66.90031
471.381	-36.18078
471.591	-46.42063
471.801	41.64203
472.01	23.21031
472.22	27.30625
472.43	-3.41328
472.64	10.9225
472.849	-7.50922
473.059	-11.60516
473.269	-27.98891
473.478	58.02578
473.688	-9.55719
473.898	-9.55719
474.107	-9.55719
474.317	-3.41328
474.527	92.84125
474.736	6.82656
474.946	-11.60516
475.155	29.35422
475.365	-11.60516
475.575	-44.37266
475.784	-11.60516
475.994	-36.18078
476.203	60.07375
476.413	21.16234
476.622	17.06641
476.832	-23.89297
477.041	25.25828
477.251	25.25828
477.46	72.36156
477.67	-34.13281
477.879	-19.79703
478.089	-1.36531
478.298	39.59406
478.508	-64.85234
478.717	-7.50922
478.927	12.97047
479.136	4.77859
479.345	-25.94094
479.555	107.17703
479.764	-19.79703
479.974	-17.74906
480.183	62.12172
480.392	86.69734
480.602	-1.36531
480.811	2.73062
481.02	-23.89297
481.23	2.73062
481.439	17.06641
481.648	10.9225
481.858	2.73062
482.067	-17.74906
482.276	47.78594
482.485	74.40953
482.695	-64.85234
482.904	-9.55719
483.113	-56.66047
483.322	74.40953
483.532	-23.89297
483.741	25.25828
483.95	-23.89297
484.159	2.73062
484.368	6.82656
484.577	-30.03688
484.787	-19.79703
484.996	-48.46859
485.205	-42.32469
485.414	-87.38
485.623	-60.75641
485.832	-25.94094
486.041	12.97047
486.25	55.97781
486.459	-5.46125
486.669	43.69
486.878	-66.90031
487.087	-15.70109
487.296	-68.94828
487.505	-15.70109
487.714	-30.03688
487.923	17.06641
488.132	-60.75641
488.341	-7.50922
488.55	23.21031
488.759	-5.46125
488.968	-44.37266
489.177	10.9225
489.385	-23.89297
489.594	-9.55719
489.803	-25.94094
490.012	4.77859
490.221	51.88187
490.43	0.68266
490.639	10.9225
490.848	-68.94828
491.057	-38.22875
491.265	31.40219
491.474	10.9225
491.683	55.97781
491.892	0.68266
492.101	31.40219
492.31	80.55344
492.518	-9.55719
492.727	-30.03688
492.936	6.82656
493.145	-50.51656
493.353	-1.36531
493.562	12.97047
493.771	33.45016
493.98	-27.98891
494.188	37.54609
494.397	21.16234
494.606	-9.55719
494.814	2.73062
495.023	-68.94828
495.232	66.21766
495.44	-19.79703
495.649	53.92984
495.858	-25.94094
496.066	15.01844
496.275	-64.85234
496.483	25.25828
496.692	-7.50922
496.901	-50.51656
497.109	-27.98891
497.318	-30.03688
497.526	51.88187
497.735	37.54609
497.943	-23.89297
498.152	66.21766
498.36	21.16234
498.569	-42.32469
498.777	8.87453
498.986	-48.46859
499.194	37.54609
499.403	-11.60516
499.611	19.11437
499.82	21.16234
500.028	8.87453
500.236	74.40953
500.445	6.82656
500.653	12.97047
500.862	-30.03688
501.07	-64.85234
501.278	12.97047
501.487	41.64203
501.695	70.31359
501.903	-44.37266
502.112	-7.50922
502.32	-17.74906
502.528	2.73062
502.737	-5.46125
502.945	31.40219
503.153	-5.46125
503.361	15.01844
503.57	0.68266
503.778	-19.79703
503.986	-5.46125
504.194	49.83391
504.403	-38.22875
504.611	-21.845
504.819	-9.55719
505.027	-44.37266
505.235	-15.70109
505.443	25.25828
505.652	-19.79703
505.86	-52.56453
506.068	8.87453
506.276	25.25828
506.484	-62.80438
506.692	8.87453
506.9	21.16234
507.108	-46.42063
507.316	-25.94094
507.524	68.26562
507.733	-3.41328
507.941	37.54609
508.149	-21.845
508.357	-38.22875
508.565	4.77859
508.773	19.11437
508.981	15.01844
509.189	6.82656
509.397	4.77859
509.605	-3.41328
509.812	10.9225
510.02	66.21766
510.228	4.77859
510.436	-19.79703
510.644	-66.90031
510.852	17.06641
511.06	-27.98891
511.268	33.45016
511.476	12.97047
511.684	-3.41328
511.891	-9.55719
512.099	8.87453
512.307	-13.65313
512.515	94.88922
512.723	4.77859
512.93	43.69
513.138	51.88187
513.346	21.16234
513.554	8.87453
513.761	-1.36531
513.969	-5.46125
514.177	2.73062
514.385	-50.51656
514.592	29.35422
514.8	-21.845
515.008	-7.50922
515.215	6.82656
515.423	-50.51656
515.631	-73.04422
515.838	21.16234
516.046	-60.75641
516.254	43.69
516.461	35.49812
516.669	-13.65313
516.876	-3.41328
517.084	23.21031
517.292	-44.37266
517.499	37.54609
517.707	8.87453
517.914	92.84125
518.122	23.21031
518.329	60.07375
518.537	-64.85234
518.744	-32.08484
518.952	4.77859
519.159	-3.41328
519.367	-15.70109
519.574	-9.55719
519.782	-3.41328
519.989	2.73062
520.197	-11.60516
520.404	39.59406
520.611	-17.74906
520.819	-38.22875
521.026	-56.66047
521.234	21.16234
521.441	62.12172
521.648	-68.94828
521.856	2.73062
522.063	-56.66047
522.27	17.06641
522.478	39.59406
522.685	2.73062
522.892	-79.18813
523.1	-11.60516
523.307	33.45016
523.514	2.73062
523.721	-52.56453
523.929	-3.41328
524.136	0.68266
524.343	-7.50922
524.55	55.97781
524.757	-38.22875
524.965	19.11437
525.172	-40.27672
525.379	-17.74906
525.586	-25.94094
525.793	-50.51656
526	-13.65313
526.208	-11.60516
526.415	-60.75641
526.622	31.40219
526.829	8.87453
527.036	-58.70844
527.243	-40.27672
527.45	-9.55719
527.657	-27.98891
527.864	-54.6125
528.071	-7.50922
528.278	6.82656
528.485	21.16234
528.692	-15.70109
528.899	-21.845
529.106	27.30625
529.313	29.35422
529.52	-64.85234
529.727	47.78594
529.934	-13.65313
530.141	-42.32469
530.348	25.25828
530.555	2.73062
530.762	60.07375
530.968	55.97781
531.175	55.97781
531.382	6.82656
531.589	-7.50922
531.796	8.87453
532.003	-66.90031
532.21	-89.42797
532.416	12.97047
532.623	-11.60516
532.83	27.30625
533.037	-30.03688
533.243	12.97047
533.45	-54.6125
533.657	-19.79703
533.864	-50.51656
534.07	-17.74906
534.277	21.16234
534.484	25.25828
534.691	-54.6125
534.897	41.64203
535.104	6.82656
535.311	-62.80438
535.517	6.82656
535.724	12.97047
535.93	2.73062
536.137	31.40219
536.344	41.64203
536.55	88.74531
536.757	-30.03688
536.963	31.40219
537.17	-21.845
537.377	-58.70844
537.583	-17.74906
537.79	-30.03688
537.996	19.11437
538.203	58.02578
538.409	4.77859
538.616	-48.46859
538.822	-77.14016
539.029	-42.32469
539.235	-11.60516
539.442	25.25828
539.648	-23.89297
539.854	17.06641
540.061	76.4575
540.267	-3.41328
540.474	17.06641
540.68	-7.50922
540.886	-44.37266
541.093	86.69734
541.299	-42.32469
541.505	-7.50922
541.712	23.21031
541.918	-11.60516
542.124	68.26562
542.331	-60.75641
542.537	-44.37266
542.743	-9.55719
542.949	19.11437
543.156	27.30625
543.362	-3.41328
543.568	74.40953
543.774	-36.18078
543.981	-56.66047
544.187	35.49812
544.393	-25.94094
544.599	17.06641
544.805	-15.70109
545.011	-60.75641
545.218	23.21031
545.424	27.30625
545.63	-58.70844
545.836	29.35422
546.042	-40.27672
546.248	-32.08484
546.454	-15.70109
546.66	6.82656
546.866	-19.79703
547.072	-3.41328
547.278	-34.13281
547.484	23.21031
547.69	-11.60516
547.896	31.40219
548.102	-23.89297
548.308	27.30625
548.514	41.64203
548.72	-7.50922
548.926	33.45016
549.132	-30.03688
549.338	49.83391
549.544	-83.28406
549.75	-11.60516
549.956	-7.50922
550.162	4.77859
550.368	-7.50922
550.574	-34.13281
550.779	15.01844
550.985	-3.41328
551.191	-15.70109
551.397	-19.79703
551.603	-9.55719
551.808	6.82656
552.014	8.87453
552.22	8.87453
552.426	-32.08484
552.632	12.97047
552.837	8.87453
553.043	-25.94094
553.249	-36.18078
553.454	-11.60516
553.66	33.45016
553.866	-3.41328
554.071	-62.80438
554.277	10.9225
554.483	-38.22875
554.688	66.21766
554.894	-54.6125
555.1	39.59406
555.305	41.64203
555.511	-62.80438
555.716	33.45016
555.922	15.01844
556.128	12.97047
556.333	15.01844
556.539	21.16234
556.744	74.40953
556.95	2.73062
557.155	-7.50922
557.361	-9.55719
557.566	39.59406
557.772	-30.03688
557.977	-50.51656
558.183	58.02578
558.388	35.49812
558.594	17.06641
558.799	37.54609
559.004	-11.60516
559.21	-40.27672
559.415	53.92984
559.621	39.59406
559.826	-34.13281
560.031	-17.74906
560.237	-11.60516
560.442	-58.70844
560.647	29.35422
560.853	39.59406
561.058	84.64937
561.263	41.64203
561.468	-1.36531
561.674	-9.55719
561.879	27.30625
562.084	-1.36531
562.289	-3.41328
562.495	-7.50922
562.7	19.11437
562.905	-58.70844
563.11	4.77859
563.315	0.68266
563.521	6.82656
563.726	12.97047
563.931	-44.37266
564.136	-70.99625
564.341	-11.60516
564.546	-21.845
564.751	-62.80438
564.956	21.16234
565.162	43.69
565.367	31.40219
565.572	-50.51656
565.777	-54.6125
565.982	17.06641
566.187	21.16234
566.392	-48.46859
566.597	39.59406
566.802	21.16234
567.007	-36.18078
567.212	-7.50922
567.417	-7.50922
567.622	-66.90031
567.827	-1.36531
568.031	35.49812
568.236	17.06641
568.441	15.01844
568.646	-23.89297
568.851	-17.74906
569.056	-7.50922
569.261	-1.36531
569.466	49.83391
569.67	25.25828
569.875	35.49812
570.08	-11.60516
570.285	-93.52391
570.49	-46.42063
570.694	70.31359
570.899	27.30625
571.104	-50.51656
571.309	-79.18813
571.513	-7.50922
571.718	-50.51656
571.923	66.21766
572.128	10.9225
572.332	12.97047
572.537	12.97047
572.742	37.54609
572.946	60.07375
573.151	41.64203
573.355	64.16969
573.56	19.11437
573.765	8.87453
573.969	21.16234
574.174	-38.22875
574.378	-3.41328
574.583	60.07375
574.788	68.26562
574.992	51.88187
575.197	-5.46125
575.401	-27.98891
575.606	-15.70109
575.81	-15.70109
576.015	23.21031
576.219	31.40219
576.424	-66.90031
576.628	-50.51656
576.832	2.73062
577.037	-27.98891
577.241	64.16969
577.446	45.73797
577.65	4.77859
577.854	-75.09219
578.059	84.64937
578.263	-1.36531
578.467	21.16234
578.672	53.92984
578.876	35.49812
579.08	-3.41328
579.285	47.78594
579.489	31.40219
579.693	2.73062
579.898	10.9225
580.102	17.06641
580.306	25.25828
580.51	27.30625
580.715	27.30625
580.919	-32.08484
581.123	-11.60516
581.327	33.45016
581.531	-62.80438
581.735	-7.50922
581.94	-50.51656
582.144	2.73062
582.348	2.73062
582.552	-44.37266
582.756	2.73062
582.96	2.73062
583.164	19.11437
583.368	39.59406
583.572	33.45016
583.776	-17.74906
583.98	2.73062
584.185	72.36156
584.389	-27.98891
584.593	17.06641
584.797	35.49812
585	17.06641
585.204	19.11437
585.408	51.88187
585.612	17.06641
585.816	21.16234
586.02	-1.36531
586.224	45.73797
586.428	47.78594
586.632	-32.08484
586.836	-9.55719
587.04	6.82656
587.244	-1.36531
587.447	-25.94094
587.651	-68.94828
587.855	62.12172
588.059	-40.27672
588.263	-48.46859
588.466	2.73062
588.67	-32.08484
588.874	10.9225
589.078	-60.75641
589.281	37.54609
589.485	-9.55719
589.689	19.11437
589.893	-124.24344
590.096	35.49812
590.3	-13.65313
590.504	-1.36531
590.707	-40.27672
590.911	-15.70109
591.115	-62.80438
591.318	6.82656
591.522	6.82656
591.725	-52.56453
591.929	49.83391
592.133	-50.51656
592.336	-3.41328
592.54	47.78594
592.743	10.9225
592.947	-34.13281
593.15	23.21031
593.354	-15.70109
593.557	8.87453
593.761	8.87453
593.964	-42.32469
594.168	43.69
594.371	-5.46125
594.575	-1.36531
594.778	25.25828
594.981	-15.70109
595.185	-32.08484
595.388	-32.08484
595.592	78.50547
595.795	43.69
595.998	86.69734
596.202	-75.09219
596.405	-32.08484
596.608	47.78594
596.812	37.54609
597.015	33.45016
597.218	25.25828
597.421	12.97047
597.625	35.49812
597.828	-17.74906
598.031	49.83391
598.234	-30.03688
598.438	-62.80438
598.641	17.06641
598.844	17.06641
599.047	-11.60516
599.25	-17.74906
599.453	-11.60516
599.657	76.4575
599.86	-73.04422
600.063	-70.99625
600.266	-85.33203
600.469	55.97781
600.672	10.9225
600.875	15.01844
601.078	43.69
601.281	4.77859
601.484	-66.90031
601.687	-15.70109
601.89	12.97047
602.093	-15.70109
602.296	0.68266
602.499	-27.98891
602.702	-54.6125
602.905	80.55344
603.108	25.25828
603.311	-77.14016
603.514	0.68266
603.717	19.11437
603.92	10.9225
604.123	-62.80438
604.326	-68.94828
604.529	-1.36531
604.731	37.54609
604.934	-44.37266
605.137	-52.56453
605.34	-27.98891
605.543	51.88187
605.745	17.06641
605.948	-15.70109
606.151	60.07375
606.354	19.11437
606.557	15.01844
606.759	10.9225
606.962	33.45016
607.165	33.45016
607.367	2.73062
607.57	25.25828
607.773	-34.13281
607.975	64.16969
608.178	45.73797
608.381	31.40219
608.583	43.69
608.786	-32.08484
608.989	-1.36531
609.191	-5.46125
609.394	-56.66047
609.596	19.11437
609.799	2.73062
610.001	-48.46859
610.204	2.73062
610.406	-46.42063
610.609	-58.70844
610.811	33.45016
611.014	64.16969
611.216	10.9225
611.419	29.35422
611.621	-77.14016
611.824	23.21031
612.026	-46.42063
612.229	-66.90031
612.431	-75.09219
612.633	80.55344
612.836	-17.74906
613.038	-7.50922
613.24	0.68266
613.443	0.68266
613.645	-42.32469
613.847	8.87453
614.05	39.59406
614.252	-25.94094
614.454	-13.65313
614.657	-27.98891
614.859	-46.42063
615.061	-11.60516
615.263	-15.70109
615.466	-1.36531
615.668	66.21766
615.87	19.11437
616.072	2.73062
616.274	-5.46125
616.476	31.40219
616.679	-25.94094
616.881	-19.79703
617.083	10.9225
617.285	-64.85234
617.487	70.31359
617.689	2.73062
617.891	2.73062
618.093	19.11437
618.295	-7.50922
618.497	49.83391
618.699	33.45016
618.901	-23.89297
619.103	-30.03688
619.305	-7.50922
619.507	-58.70844
619.709	-17.74906
619.911	37.54609
620.113	41.64203
620.315	6.82656
620.517	19.11437
620.719	-40.27672
620.921	98.98516
621.123	-21.845
621.325	25.25828
621.527	-23.89297
621.728	27.30625
621.93	-1.36531
622.132	43.69
622.334	25.25828
622.536	-9.55719
622.737	12.97047
622.939	98.98516
623.141	33.45016
623.343	-30.03688
623.544	8.87453
623.746	21.16234
623.948	-27.98891
624.15	-13.65313
624.351	-11.60516
624.553	-75.09219
624.755	39.59406
624.956	8.87453
625.158	37.54609
625.36	64.16969
625.561	35.49812
625.763	0.68266
625.964	-48.46859
626.166	-50.51656
626.367	-34.13281
626.569	0.68266
626.771	17.06641
626.972	4.77859
627.174	37.54609
627.375	-21.845
627.577	25.25828
627.778	53.92984
627.98	-38.22875
628.181	15.01844
628.382	-30.03688
628.584	-25.94094
628.785	-40.27672
628.987	-30.03688
629.188	-52.56453
629.39	17.06641
629.591	-48.46859
629.792	-54.6125
629.994	-7.50922
630.195	-25.94094
630.396	-42.32469
630.598	62.12172
630.799	-23.89297
631	-1.36531
631.201	23.21031
631.403	35.49812
631.604	19.11437
631.805	-21.845
632.006	47.78594
632.208	6.82656
632.409	-11.60516
632.61	-15.70109
632.811	17.06641
633.012	-3.41328
633.214	19.11437
633.415	6.82656
633.616	0.68266
633.817	23.21031
634.018	-9.55719
634.219	-11.60516
634.42	17.06641
634.621	78.50547
634.822	53.92984
635.023	-38.22875
635.224	-13.65313
635.425	2.73062
635.626	-30.03688
635.827	-13.65313
636.028	2.73062
636.229	6.82656
636.43	-27.98891
636.631	-7.50922
636.832	-3.41328
637.033	-13.65313
637.234	-15.70109
637.435	2.73062
637.636	-7.50922
637.837	-17.74906
638.037	-50.51656
638.238	-3.41328
638.439	25.25828
638.64	58.02578
638.841	-21.845
639.042	0.68266
639.242	29.35422
639.443	-56.66047
639.644	25.25828
639.845	-27.98891
640.045	88.74531
640.246	15.01844
640.447	47.78594
640.648	-21.845
640.848	-30.03688
641.049	-50.51656
641.25	15.01844
641.45	12.97047
641.651	-44.37266
641.851	12.97047
642.052	53.92984
642.253	-73.04422
642.453	-38.22875
642.654	17.06641
642.854	-23.89297
643.055	-13.65313
643.255	17.06641
643.456	49.83391
643.656	35.49812
643.857	4.77859
644.057	88.74531
644.258	-21.845
644.458	35.49812
644.659	84.64937
644.859	-64.85234
645.06	-11.60516
645.26	58.02578
645.46	17.06641
645.661	29.35422
645.861	82.60141
646.062	-13.65313
646.262	-1.36531
646.462	-7.50922
646.663	-1.36531
646.863	-7.50922
647.063	-9.55719
647.263	6.82656
647.464	4.77859
647.664	-1.36531
647.864	-120.1475
648.064	-9.55719
648.265	23.21031
648.465	-50.51656
648.665	-21.845
648.865	51.88187
649.065	45.73797
649.266	-40.27672
649.466	-7.50922
649.666	41.64203
649.866	-48.46859
650.066	-48.46859
650.266	29.35422
650.466	101.03312
650.666	-93.52391
650.866	-7.50922
651.067	33.45016
651.267	-44.37266
651.467	23.21031
651.667	10.9225
651.867	6.82656
652.067	-19.79703
652.267	-56.66047
652.466	-17.74906
652.666	4.77859
652.866	-21.845
653.066	-7.50922
653.266	53.92984
653.466	-5.46125
653.666	-21.845
653.866	37.54609
654.066	66.21766
654.266	-62.80438
654.465	25.25828
654.665	41.64203
654.865	72.36156
655.065	25.25828
655.265	-23.89297
655.464	6.82656
655.664	-13.65313
655.864	39.59406
656.064	-54.6125
656.263	8.87453
656.463	-27.98891
656.663	31.40219
656.862	-54.6125
657.062	-34.13281
657.262	51.88187
657.461	-38.22875
657.661	6.82656
657.861	27.30625
658.06	47.78594
658.26	-38.22875
658.459	-7.50922
658.659	-23.89297
658.858	-7.50922
659.058	0.68266
659.258	-17.74906
659.457	-5.46125
659.657	51.88187
659.856	27.30625
660.056	29.35422
660.255	29.35422
660.454	-46.42063
660.654	-87.38
660.853	17.06641
661.053	-79.18813
661.252	15.01844
661.452	-23.89297
661.651	35.49812
661.85	-79.18813
662.05	0.68266
662.249	80.55344
662.448	4.77859
662.648	-13.65313
662.847	51.88187
663.046	82.60141
663.245	-5.46125
663.445	41.64203
663.644	19.11437
663.843	6.82656
664.042	-1.36531
664.242	21.16234
664.441	-1.36531
664.64	-3.41328
664.839	-40.27672
665.038	27.30625
665.237	27.30625
665.437	-42.32469
665.636	-34.13281
665.835	49.83391
666.034	12.97047
666.233	-52.56453
666.432	-75.09219
666.631	80.55344
666.83	-7.50922
667.029	-48.46859
667.228	6.82656
667.427	-17.74906
667.626	96.93719
667.825	-7.50922
668.024	6.82656
668.223	6.82656
668.422	64.16969
668.621	29.35422
668.82	-46.42063
669.019	41.64203
669.218	43.69
669.417	-42.32469
669.615	-13.65313
669.814	23.21031
670.013	0.68266
670.212	19.11437
670.411	-70.99625
670.609	29.35422
670.808	47.78594
671.007	84.64937
671.206	15.01844
671.405	119.46484
671.603	2.73062
671.802	19.11437
672.001	2.73062
672.199	-19.79703
672.398	15.01844
672.597	35.49812
672.795	-11.60516
672.994	113.32094
673.193	-13.65313
673.391	45.73797
673.59	-30.03688
673.789	-32.08484
673.987	25.25828
674.186	29.35422
674.384	35.49812
674.583	19.11437
674.781	47.78594
674.98	27.30625
675.178	17.06641
675.377	-50.51656
675.575	-3.41328
675.774	45.73797
675.972	70.31359
676.171	-70.99625
676.369	27.30625
676.567	-17.74906
676.766	-23.89297
676.964	58.02578
677.163	-17.74906
677.361	-9.55719
677.559	-34.13281
677.758	-11.60516
677.956	-38.22875
678.154	4.77859
678.353	15.01844
678.551	-17.74906
678.749	4.77859
678.947	-83.28406
679.146	80.55344
679.344	25.25828
679.542	-50.51656
679.74	-5.46125
679.938	4.77859
680.137	17.06641
680.335	37.54609
680.533	6.82656
680.731	-5.46125
680.929	-13.65313
681.127	-38.22875
681.325	-25.94094
681.523	10.9225
681.721	-5.46125
681.92	-25.94094
682.118	-138.57922
682.316	-64.85234
682.514	41.64203
682.712	33.45016
682.91	-5.46125
683.108	-1.36531
683.306	25.25828
683.504	2.73062
683.701	-11.60516
683.899	-30.03688
684.097	-5.46125
684.295	-7.50922
684.493	-23.89297
684.691	-34.13281
684.889	27.30625
685.087	4.77859
685.284	17.06641
685.482	6.82656
685.68	-130.38734
685.878	-3.41328
686.076	19.11437
686.273	35.49812
686.471	12.97047
686.669	8.87453
686.867	15.01844
687.064	10.9225
687.262	-19.79703
687.46	25.25828
687.657	-1.36531
687.855	55.97781
688.053	-32.08484
688.25	-7.50922
688.448	6.82656
688.646	-40.27672
688.843	-27.98891
689.041	-3.41328
689.238	-5.46125
689.436	-30.03688
689.633	15.01844
689.831	31.40219
690.029	-21.845
690.226	2.73062
690.424	15.01844
690.621	6.82656
690.818	43.69
691.016	-48.46859
691.213	60.07375
691.411	47.78594
691.608	-32.08484
691.806	41.64203
692.003	0.68266
692.2	-36.18078
692.398	53.92984
692.595	-15.70109
692.792	33.45016
692.99	6.82656
693.187	-3.41328
693.384	23.21031
693.582	-25.94094
693.779	-77.14016
693.976	-13.65313
694.173	23.21031
694.371	47.78594
694.568	51.88187
694.765	8.87453
694.962	53.92984
695.159	8.87453
695.356	19.11437
695.554	-13.65313
695.751	60.07375
695.948	-30.03688
696.145	8.87453
696.342	-44.37266
696.539	43.69
696.736	-11.60516
696.933	-15.70109
697.13	-38.22875
697.327	58.02578
697.524	58.02578
697.721	-19.79703
697.918	-52.56453
698.115	-79.18813
698.312	12.97047
698.509	-50.51656
698.706	0.68266
698.903	-5.46125
699.1	15.01844
699.297	10.9225
699.494	74.40953
699.691	25.25828
699.887	-13.65313
700.084	-62.80438
700.281	10.9225
700.478	43.69
700.675	6.82656
700.871	-5.46125
701.068	-48.46859
701.265	25.25828
701.462	33.45016
701.658	60.07375
701.855	-52.56453
702.052	51.88187
702.249	-3.41328
702.445	43.69
702.642	-3.41328
702.839	31.40219
703.035	53.92984
703.232	92.84125
703.428	17.06641
703.625	-17.74906
703.822	-5.46125
704.018	152.23234
704.215	-7.50922
704.411	29.35422
704.608	-75.09219
704.804	-1.36531
705.001	29.35422
705.197	-7.50922
705.394	35.49812
705.59	4.77859
705.787	21.16234
705.983	80.55344
706.18	74.40953
706.376	8.87453
706.572	92.84125
706.769	33.45016
706.965	68.26562
707.161	47.78594
707.358	51.88187
707.554	82.60141
707.75	-66.90031
707.947	4.77859
708.143	-54.6125
708.339	-13.65313
708.536	-27.98891
708.732	29.35422
708.928	15.01844
709.124	-3.41328
709.32	47.78594
709.517	-19.79703
709.713	29.35422
709.909	-5.46125
710.105	25.25828
710.301	15.01844
710.497	10.9225
710.693	31.40219
710.89	2.73062
711.086	74.40953
711.282	-3.41328
711.478	-21.845
711.674	4.77859
711.87	25.25828
712.066	19.11437
712.262	47.78594
712.458	-1.36531
712.654	39.59406
712.85	17.06641
713.046	10.9225
713.242	-1.36531
713.438	49.83391
713.633	-5.46125
713.829	-34.13281
714.025	35.49812
714.221	66.21766
714.417	-32.08484
714.613	23.21031
714.809	-27.98891
715.004	2.73062
715.2	2.73062
715.396	-15.70109
715.592	-27.98891
715.788	62.12172
715.983	68.26562
716.179	-30.03688
716.375	12.97047
716.57	78.50547
716.766	-40.27672
716.962	-1.36531
717.157	10.9225
717.353	4.77859
717.549	-11.60516
717.744	-58.70844
717.94	-36.18078
718.136	-15.70109
718.331	17.06641
718.527	31.40219
718.722	-42.32469
718.918	0.68266
719.113	8.87453
719.309	19.11437
719.504	23.21031
719.7	-27.98891
719.895	-68.94828
720.091	25.25828
720.286	-34.13281
720.482	27.30625
720.677	19.11437
720.872	113.32094
721.068	80.55344
721.263	37.54609
721.458	37.54609
721.654	23.21031
721.849	-9.55719
722.044	-15.70109
722.24	0.68266
722.435	31.40219
722.63	-38.22875
722.826	-38.22875
723.021	-23.89297
723.216	-25.94094
723.411	45.73797
723.606	-15.70109
723.802	39.59406
723.997	-3.41328
724.192	8.87453
724.387	-23.89297
724.582	6.82656
724.777	12.97047
724.973	-21.845
725.168	10.9225
725.363	-36.18078
725.558	39.59406
725.753	-64.85234
725.948	-32.08484
726.143	-13.65313
726.338	-15.70109
726.533	8.87453
726.728	-25.94094
726.923	-17.74906
727.118	2.73062
727.313	-64.85234
727.508	19.11437
727.703	31.40219
727.897	25.25828
728.092	45.73797
728.287	-15.70109
728.482	-34.13281
728.677	23.21031
728.872	-52.56453
729.067	6.82656
729.261	21.16234
729.456	-7.50922
729.651	-64.85234
729.846	2.73062
730.04	-15.70109
730.235	-9.55719
730.43	-13.65313
730.625	-36.18078
730.819	33.45016
731.014	-25.94094
731.209	-58.70844
731.403	-34.13281
731.598	-5.46125
731.793	-5.46125
731.987	8.87453
732.182	-40.27672
732.376	29.35422
732.571	-56.66047
732.765	0.68266
732.96	15.01844
733.155	-9.55719
733.349	-19.79703
733.544	10.9225
733.738	19.11437
733.932	31.40219
734.127	12.97047
734.321	0.68266
734.516	-38.22875
734.71	-17.74906
734.905	27.30625
735.099	6.82656
735.293	31.40219
735.488	-1.36531
735.682	47.78594
735.876	-25.94094
736.071	-9.55719
736.265	6.82656
736.459	35.49812
736.654	-32.08484
736.848	-13.65313
737.042	31.40219
737.236	-15.70109
737.431	4.77859
737.625	92.84125
737.819	-30.03688
738.013	-17.74906
738.207	-21.845
738.401	21.16234
738.596	-64.85234
738.79	-23.89297
738.984	-21.845
739.178	-38.22875
739.372	-32.08484
739.566	31.40219
739.76	-50.51656
739.954	-17.74906
740.148	25.25828
740.342	43.69
740.536	-21.845
740.73	19.11437
740.924	-9.55719
741.118	43.69
741.312	4.77859
741.506	-1.36531
741.7	-11.60516
741.894	-25.94094
742.087	2.73062
742.281	12.97047
742.475	10.9225
742.669	2.73062
742.863	-79.18813
743.057	-17.74906
743.25	-40.27672
743.444	70.31359
743.638	-7.50922
743.832	-3.41328
744.025	-13.65313
744.219	15.01844
744.413	33.45016
744.607	10.9225
744.8	-17.74906
744.994	-7.50922
745.188	-50.51656
745.381	70.31359
745.575	31.40219
745.768	76.4575
745.962	41.64203
746.156	66.21766
746.349	29.35422
746.543	25.25828
746.736	-42.32469
746.93	33.45016
747.123	-97.61984
747.317	-3.41328
747.51	6.82656
747.704	51.88187
747.897	47.78594
748.091	23.21031
748.284	49.83391
748.478	25.25828
748.671	17.06641
748.864	64.16969
749.058	39.59406
749.251	-38.22875
749.444	-58.70844
749.638	-7.50922
749.831	31.40219
750.024	-30.03688
750.218	-48.46859
750.411	25.25828
750.604	-27.98891
750.797	12.97047
750.991	21.16234
751.184	27.30625
751.377	0.68266
751.57	-32.08484
751.763	-42.32469
751.956	-19.79703
752.15	0.68266
752.343	-32.08484
752.536	-40.27672
752.729	-13.65313
752.922	-54.6125
753.115	-7.50922
753.308	62.12172
753.501	-25.94094
753.694	4.77859
753.887	-3.41328
754.08	-56.66047
754.273	-21.845
754.466	8.87453
754.659	-64.85234
754.852	12.97047
755.045	43.69
755.238	51.88187
755.431	6.82656
755.624	43.69
755.817	-42.32469
756.009	-38.22875
756.202	92.84125
756.395	-9.55719
756.588	-5.46125
756.781	23.21031
756.973	21.16234
757.166	-1.36531
757.359	74.40953
757.552	21.16234
757.744	15.01844
757.937	-44.37266
758.13	-27.98891
758.322	-42.32469
758.515	-48.46859
758.708	49.83391
758.9	-50.51656
759.093	58.02578
759.286	4.77859
759.478	4.77859
759.671	-19.79703
759.863	-25.94094
760.056	31.40219
760.248	60.07375
760.441	78.50547
760.633	35.49812
760.826	-3.41328
761.018	-5.46125
761.211	58.02578
761.403	-62.80438
761.596	4.77859
761.788	-27.98891
761.981	-52.56453
762.173	53.92984
762.365	58.02578
762.558	33.45016
762.75	-1.36531
762.942	-60.75641
763.135	-19.79703
763.327	23.21031
763.519	-11.60516
763.712	-64.85234
763.904	23.21031
764.096	-62.80438
764.288	-34.13281
764.481	-11.60516
764.673	-40.27672
764.865	8.87453
765.057	15.01844
765.249	96.93719
765.441	-17.74906
765.634	-13.65313
765.826	-99.66781
766.018	-48.46859
766.21	19.11437
766.402	31.40219
766.594	-23.89297
766.786	-25.94094
766.978	60.07375
767.17	6.82656
767.362	123.56078
767.554	-19.79703
767.746	-7.50922
767.938	31.40219
768.13	-9.55719
768.322	-36.18078
768.514	-9.55719
768.706	-15.70109
768.898	33.45016
769.089	2.73062
769.281	47.78594
769.473	6.82656
769.665	2.73062
769.857	-25.94094
770.049	-23.89297
770.24	25.25828
770.432	-40.27672
770.624	-36.18078
770.816	49.83391
771.007	68.26562
771.199	33.45016
771.391	19.11437
771.582	6.82656
771.774	-17.74906
771.966	12.97047
772.157	-3.41328
772.349	33.45016
772.541	-21.845
772.732	-27.98891
772.924	-34.13281
773.115	2.73062
773.307	19.11437
773.498	43.69
773.69	19.11437
773.881	10.9225
774.073	-40.27672
774.264	-5.46125
774.456	-34.13281
774.647	19.11437
774.839	4.77859
775.03	-48.46859
775.221	4.77859
775.413	39.59406
775.604	2.73062
775.796	80.55344
775.987	-3.41328
776.178	-11.60516
776.37	0.68266
776.561	-58.70844
776.752	-1.36531
776.943	12.97047
777.135	-60.75641
777.326	27.30625
777.517	-17.74906
777.708	-3.41328
777.899	-17.74906
778.091	-36.18078
778.282	25.25828
778.473	-21.845
778.664	21.16234
778.855	4.77859
779.046	15.01844
779.237	-36.18078
779.428	21.16234
779.62	4.77859
779.811	-19.79703
780.002	-7.50922
780.193	-30.03688
780.384	19.11437
780.575	12.97047
780.766	49.83391
780.957	27.30625
781.148	8.87453
781.338	62.12172
781.529	64.16969
781.72	15.01844
781.911	29.35422
782.102	-13.65313
782.293	66.21766
782.484	-9.55719
782.674	-32.08484
782.865	25.25828
783.056	10.9225
783.247	-15.70109
783.438	23.21031
783.628	-42.32469
783.819	-50.51656
784.01	-27.98891
784.201	-44.37266
784.391	10.9225
784.582	-15.70109
784.773	-85.33203
784.963	6.82656
785.154	4.77859
785.344	4.77859
785.535	23.21031
785.726	33.45016
785.916	37.54609
786.107	21.16234
786.297	-32.08484
786.488	-23.89297
786.678	15.01844
786.869	-3.41328
787.059	53.92984
787.25	-19.79703
787.44	35.49812
787.631	55.97781
787.821	86.69734
788.012	-3.41328
788.202	8.87453
788.392	-25.94094
788.583	-17.74906
788.773	10.9225
788.963	-11.60516
789.154	96.93719
789.344	55.97781
789.534	-11.60516
789.724	-81.23609
789.915	-34.13281
790.105	-1.36531
790.295	-5.46125
790.485	-30.03688
790.676	41.64203
790.866	-64.85234
791.056	-15.70109
791.246	8.87453
791.436	-3.41328
791.626	-81.23609
791.816	-54.6125
792.007	41.64203
792.197	-34.13281
792.387	70.31359
792.577	2.73062
792.767	-13.65313
792.957	-32.08484
793.147	15.01844
793.337	-17.74906
793.527	-9.55719
793.717	15.01844
793.907	-38.22875
794.097	27.30625
794.287	-25.94094
794.476	49.83391
794.666	-58.70844
794.856	27.30625
795.046	-62.80438
795.236	-44.37266
795.426	-1.36531
795.615	-3.41328
795.805	4.77859
795.995	47.78594
796.185	-50.51656
796.375	21.16234
796.564	70.31359
796.754	62.12172
796.944	0.68266
797.133	25.25828
797.323	-46.42063
797.513	70.31359
797.702	72.36156
797.892	-25.94094
798.082	-27.98891
798.271	6.82656
798.461	-64.85234
798.65	-5.46125
798.84	29.35422
799.029	-60.75641
799.219	-77.14016
799.408	-13.65313
799.598	19.11437
799.787	12.97047
799.977	21.16234
800.166	58.02578
800.356	0.68266
800.545	4.77859
800.735	53.92984
800.924	17.06641
801.113	68.26562
801.303	29.35422
801.492	17.06641
801.681	-66.90031
801.871	43.69
802.06	15.01844
802.249	17.06641
802.438	41.64203
802.628	4.77859
802.817	-17.74906
803.006	0.68266
803.195	-30.03688
803.385	0.68266
803.574	6.82656
803.763	19.11437
803.952	72.36156
804.141	23.21031
804.33	17.06641
804.519	68.26562
804.708	0.68266
804.897	0.68266
805.087	12.97047
805.276	-30.03688
805.465	25.25828
805.654	-66.90031
805.843	-64.85234
806.032	-36.18078
806.22	47.78594
806.409	2.73062
806.598	-13.65313
806.787	74.40953
806.976	-5.46125
807.165	64.16969
807.354	51.88187
807.543	-19.79703
807.732	-60.75641
807.92	55.97781
808.109	6.82656
808.298	-70.99625
808.487	-50.51656
808.676	-3.41328
808.864	8.87453
809.053	8.87453
809.242	68.26562
809.43	-19.79703
809.619	-21.845
809.808	0.68266
809.996	-62.80438
810.185	-34.13281
810.374	2.73062
810.562	15.01844
810.751	2.73062
810.939	0.68266
811.128	-15.70109
811.317	-19.79703
811.505	-44.37266
811.694	-25.94094
811.882	49.83391
812.071	-3.41328
812.259	-7.50922
812.448	39.59406
812.636	23.21031
812.824	76.4575
813.013	-5.46125
813.201	-103.76375
813.39	-34.13281
813.578	39.59406
813.766	53.92984
813.955	39.59406
814.143	29.35422
814.331	-27.98891
814.519	21.16234
814.708	58.02578
814.896	-46.42063
815.084	0.68266
815.272	10.9225
815.461	47.78594
815.649	-56.66047
815.837	70.31359
816.025	4.77859
816.213	55.97781
816.401	2.73062
816.59	-7.50922
816.778	55.97781
816.966	23.21031
817.154	41.64203
817.342	-40.27672
817.53	-3.41328
817.718	-9.55719
817.906	43.69
818.094	-23.89297
818.282	-3.41328
818.47	21.16234
818.658	51.88187
818.846	-13.65313
819.034	-54.6125
819.222	51.88187
819.409	49.83391
819.597	60.07375
819.785	-17.74906
819.973	31.40219
820.161	-52.56453
820.349	37.54609
820.536	51.88187
820.724	-77.14016
820.912	-73.04422
821.1	0.68266
821.287	-5.46125
821.475	-42.32469
821.663	35.49812
821.85	31.40219
822.038	-9.55719
822.226	23.21031
822.413	-11.60516
822.601	-19.79703
822.789	0.68266
822.976	39.59406
823.164	70.31359
823.351	-48.46859
823.539	-9.55719
823.726	-5.46125
823.914	-34.13281
824.101	35.49812
824.289	39.59406
824.476	-27.98891
824.664	8.87453
824.851	17.06641
825.039	-23.89297
825.226	51.88187
825.413	6.82656
825.601	-7.50922
825.788	-11.60516
825.976	27.30625
826.163	-1.36531
826.35	19.11437
826.537	-34.13281
826.725	47.78594
826.912	-9.55719
827.099	-40.27672
827.286	-15.70109
827.474	-40.27672
827.661	-13.65313
827.848	-23.89297
828.035	49.83391
828.222	33.45016
828.409	-83.28406
828.597	-13.65313
828.784	35.49812
828.971	-7.50922
829.158	21.16234
829.345	-44.37266
829.532	39.59406
829.719	2.73062
829.906	23.21031
830.093	-27.98891
830.28	19.11437
830.467	-54.6125
830.654	-21.845
830.841	2.73062
831.028	-25.94094
831.215	-77.14016
831.402	35.49812
831.588	-46.42063
831.775	-17.74906
831.962	-5.46125
832.149	-70.99625
832.336	17.06641
832.522	-32.08484
832.709	-3.41328
832.896	15.01844
833.083	43.69
833.269	35.49812
833.456	6.82656
833.643	19.11437
833.83	0.68266
834.016	-7.50922
834.203	-101.71578
834.39	-3.41328
834.576	-17.74906
834.763	55.97781
834.949	-11.60516
835.136	-17.74906
835.322	6.82656
835.509	62.12172
835.695	-30.03688
835.882	-36.18078
836.068	-60.75641
836.255	-27.98891
836.441	31.40219
836.628	78.50547
836.814	8.87453
837.001	31.40219
837.187	51.88187
837.373	10.9225
837.56	-27.98891
837.746	17.06641
837.933	21.16234
838.119	-42.32469
838.305	-36.18078
838.491	-5.46125
838.678	-19.79703
838.864	90.79328
839.05	-32.08484
839.236	-1.36531
839.423	21.16234
839.609	8.87453
839.795	27.30625
839.981	-11.60516
840.167	-46.42063
840.353	-19.79703
840.54	25.25828
840.726	-105.81172
840.912	-36.18078
841.098	-23.89297
841.284	-54.6125
841.47	31.40219
841.656	-52.56453
841.842	4.77859
842.028	-101.71578
842.214	21.16234
842.4	-19.79703
842.586	-19.79703
842.772	-32.08484
842.958	-15.70109
843.143	6.82656
843.329	29.35422
843.515	109.225
843.701	17.06641
843.887	8.87453
844.073	107.17703
844.258	4.77859
844.444	-17.74906
844.63	62.12172
844.816	29.35422
845.001	-38.22875
845.187	-15.70109
845.373	-13.65313
845.559	10.9225
845.744	-7.50922
845.93	25.25828
846.115	6.82656
846.301	33.45016
846.487	86.69734
846.672	-7.50922
846.858	21.16234
847.043	6.82656
847.229	55.97781
847.414	-3.41328
847.6	-42.32469
847.785	-17.74906
847.971	31.40219
848.156	23.21031
848.342	-19.79703
848.527	-1.36531
848.713	66.21766
848.898	-30.03688
849.083	-7.50922
849.269	27.30625
849.454	-13.65313
849.639	-15.70109
849.825	0.68266
850.01	-42.32469
850.195	-7.50922
850.381	-17.74906
850.566	41.64203
850.751	45.73797
850.936	4.77859
851.122	72.36156
851.307	10.9225
851.492	2.73062
851.677	-58.70844
851.862	19.11437
852.047	0.68266
852.232	-21.845
852.417	10.9225
852.603	17.06641
852.788	43.69
852.973	-44.37266
853.158	-68.94828
853.343	70.31359
853.528	-3.41328
853.713	-30.03688
853.898	-42.32469
854.083	31.40219
854.267	51.88187
854.452	55.97781
854.637	39.59406
854.822	-32.08484
855.007	-1.36531
855.192	-79.18813
855.377	39.59406
855.562	6.82656
855.746	47.78594
855.931	35.49812
856.116	-9.55719
856.301	-25.94094
856.485	47.78594
856.67	-9.55719
856.855	10.9225
857.039	25.25828
857.224	-1.36531
857.409	-34.13281
857.593	-15.70109
857.778	-7.50922
857.963	10.9225
858.147	29.35422
858.332	58.02578
858.516	41.64203
858.701	31.40219
858.885	27.30625
859.07	58.02578
859.254	72.36156
859.439	-36.18078
859.623	2.73062
859.808	19.11437
859.992	-44.37266
860.177	72.36156
860.361	55.97781
860.545	12.97047
860.73	25.25828
860.914	-60.75641
861.098	8.87453
861.283	-13.65313
861.467	-23.89297
861.651	-17.74906
861.836	-23.89297
862.02	-7.50922
862.204	-15.70109
862.388	-1.36531
862.572	60.07375
862.757	37.54609
862.941	-64.85234
863.125	-15.70109
863.309	8.87453
863.493	-19.79703
863.677	-9.55719
863.861	-7.50922
864.045	68.26562
864.23	-7.50922
864.414	45.73797
864.598	-13.65313
864.782	17.06641
864.966	92.84125
865.15	23.21031
865.334	64.16969
865.517	-5.46125
865.701	17.06641
865.885	25.25828
866.069	-56.66047
866.253	51.88187
866.437	6.82656
866.621	4.77859
866.805	47.78594
866.988	96.93719
867.172	-46.42063
867.356	-27.98891
867.54	-7.50922
867.723	-19.79703
867.907	-27.98891
868.091	49.83391
868.275	-11.60516
868.458	17.06641
868.642	62.12172
868.826	-9.55719
869.009	43.69
869.193	-3.41328
869.376	-66.90031
869.56	-56.66047
869.744	15.01844
869.927	21.16234
870.111	23.21031
870.294	-23.89297
870.478	49.83391
870.661	43.69
870.845	39.59406
871.028	-30.03688
871.211	88.74531
871.395	-7.50922
871.578	-54.6125
871.762	-7.50922
871.945	-30.03688
872.128	-60.75641
872.312	-97.61984
872.495	-13.65313
872.678	10.9225
872.862	27.30625
873.045	-9.55719
873.228	-36.18078
873.411	-3.41328
873.595	-9.55719
873.778	2.73062
873.961	49.83391
874.144	76.4575
874.327	-30.03688
874.51	2.73062
874.694	29.35422
874.877	-77.14016
875.06	25.25828
875.243	4.77859
875.426	15.01844
875.609	2.73062
875.792	-58.70844
875.975	12.97047
876.158	41.64203
876.341	-23.89297
876.524	-73.04422
876.707	-58.70844
876.89	37.54609
877.073	-48.46859
877.255	-3.41328
877.438	43.69
877.621	-9.55719
877.804	-38.22875
877.987	-19.79703
878.17	2.73062
878.352	-68.94828
878.535	-5.46125
878.718	2.73062
878.901	33.45016
879.083	23.21031
879.266	21.16234
879.449	-36.18078
879.631	-21.845
879.814	62.12172
879.997	-40.27672
880.179	8.87453
880.362	35.49812
880.545	15.01844
880.727	-62.80438
880.91	-44.37266
881.092	-5.46125
881.275	17.06641
881.457	31.40219
881.64	10.9225
881.822	0.68266
882.005	-60.75641
882.187	-44.37266
882.37	15.01844
882.552	58.02578
882.734	47.78594
882.917	21.16234
883.099	-70.99625
883.281	86.69734
883.464	15.01844
883.646	-17.74906
883.828	-1.36531
884.011	-5.46125
884.193	-1.36531
884.375	-9.55719
884.557	21.16234
884.74	4.77859
884.922	-1.36531
885.104	55.97781
885.286	107.17703
885.468	-42.32469
885.65	-1.36531
885.832	-30.03688
886.015	39.59406
886.197	-73.04422
886.379	-7.50922
886.561	-36.18078
886.743	-38.22875
886.925	-50.51656
887.107	19.11437
887.289	-23.89297
887.471	2.73062
887.653	0.68266
887.835	-15.70109
888.016	35.49812
888.198	47.78594
888.38	-3.41328
888.562	31.40219
888.744	6.82656
888.926	37.54609
889.108	39.59406
889.289	41.64203
889.471	53.92984
889.653	68.26562
889.835	-17.74906
890.016	47.78594
890.198	19.11437
890.38	-34.13281
890.561	19.11437
890.743	-19.79703
890.925	-3.41328
891.106	-13.65313
891.288	10.9225
891.469	8.87453
891.651	31.40219
891.833	-5.46125
892.014	51.88187
892.196	-15.70109
892.377	2.73062
892.559	55.97781
892.74	29.35422
892.922	25.25828
893.103	8.87453
893.284	-25.94094
893.466	-34.13281
893.647	2.73062
893.829	-44.37266
894.01	-36.18078
894.191	33.45016
894.373	-21.845
894.554	-48.46859
894.735	41.64203
894.916	6.82656
895.098	-32.08484
895.279	31.40219
895.46	15.01844
895.641	25.25828
895.823	-25.94094
896.004	23.21031
896.185	60.07375
896.366	-21.845
896.547	-3.41328
896.728	-3.41328
896.909	21.16234
897.09	-21.845
897.271	-15.70109
897.452	6.82656
897.633	-27.98891
897.814	33.45016
897.995	0.68266
898.176	23.21031
898.357	6.82656
898.538	66.21766
898.719	-42.32469
898.9	19.11437
899.081	2.73062
899.262	-11.60516
899.443	37.54609
899.623	-103.76375
899.804	27.30625
899.985	-44.37266
900.166	-27.98891
900.347	-15.70109
900.527	2.73062
900.708	-3.41328
900.889	19.11437
901.07	-5.46125
901.25	35.49812
901.431	23.21031
901.611	0.68266
901.792	-56.66047
901.973	-9.55719
902.153	-81.23609
902.334	41.64203
902.514	0.68266
902.695	15.01844
902.876	21.16234
903.056	-1.36531
903.237	76.4575
903.417	47.78594
903.597	-5.46125
903.778	-40.27672
903.958	-83.28406
904.139	-3.41328
904.319	39.59406
904.499	2.73062
904.68	-27.98891
904.86	23.21031
905.04	-19.79703
905.221	-52.56453
905.401	19.11437
905.581	-1.36531
905.762	4.77859
905.942	8.87453
906.122	33.45016
906.302	-46.42063
906.482	-44.37266
906.663	-11.60516
906.843	21.16234
907.023	4.77859
907.203	25.25828
907.383	-38.22875
907.563	-40.27672
907.743	-70.99625
907.923	-38.22875
908.103	39.59406
908.283	-5.46125
908.463	-38.22875
908.643	-11.60516
908.823	-34.13281
909.003	-21.845
909.183	115.36891
909.363	94.88922
909.543	37.54609
909.723	-36.18078
909.903	-25.94094
910.082	-17.74906
910.262	29.35422
910.442	-66.90031
910.622	19.11437
910.802	8.87453
910.981	-9.55719
911.161	-13.65313
911.341	27.30625
911.521	4.77859
911.7	8.87453
911.88	-1.36531
912.06	-1.36531
912.239	-56.66047
912.419	-34.13281
912.598	-73.04422
912.778	8.87453
912.958	33.45016
913.137	19.11437
913.317	51.88187
913.496	-46.42063
913.676	-5.46125
913.855	-7.50922
914.035	-17.74906
914.214	10.9225
914.393	35.49812
914.573	37.54609
914.752	-44.37266
914.932	68.26562
915.111	-3.41328
915.29	58.02578
915.47	-30.03688
915.649	60.07375
915.828	25.25828
916.008	-36.18078
916.187	31.40219
916.366	19.11437
916.545	15.01844
916.724	19.11437
916.904	33.45016
917.083	8.87453
917.262	43.69
917.441	39.59406
917.62	-13.65313
917.799	8.87453
917.978	-44.37266
918.158	-36.18078
918.337	-52.56453
918.516	19.11437
918.695	8.87453
918.874	-21.845
919.053	8.87453
919.232	-3.41328
919.41	2.73062
919.589	-48.46859
919.768	45.73797
919.947	37.54609
920.126	21.16234
920.305	15.01844
920.484	2.73062
920.663	-36.18078
920.841	19.11437
921.02	47.78594
921.199	-62.80438
921.378	-42.32469
921.556	-38.22875
921.735	12.97047
921.914	-54.6125
922.093	-23.89297
922.271	82.60141
922.45	-42.32469
922.629	27.30625
922.807	-89.42797
922.986	35.49812
923.164	-27.98891
923.343	-19.79703
923.521	-44.37266
923.7	15.01844
923.878	23.21031
924.057	51.88187
924.235	101.03312
924.414	-21.845
924.592	31.40219
924.771	-75.09219
924.949	80.55344
925.128	-38.22875
925.306	-42.32469
925.484	2.73062
925.663	49.83391
925.841	-36.18078
926.019	0.68266
926.198	21.16234
926.376	8.87453
926.554	-32.08484
926.732	10.9225
926.91	-27.98891
927.089	-21.845
927.267	4.77859
927.445	-5.46125
927.623	-3.41328
927.801	23.21031
927.979	-58.70844
928.158	25.25828
928.336	6.82656
928.514	-7.50922
928.692	35.49812
928.87	8.87453
929.048	35.49812
929.226	41.64203
929.404	10.9225
929.582	-23.89297
929.76	-7.50922
929.937	-25.94094
930.115	55.97781
930.293	29.35422
930.471	47.78594
930.649	-17.74906
930.827	-21.845
931.005	8.87453
931.182	10.9225
931.36	-25.94094
931.538	-79.18813
931.716	6.82656
931.893	31.40219
932.071	-25.94094
932.249	17.06641
932.426	-25.94094
932.604	2.73062
932.782	-19.79703
932.959	23.21031
933.137	19.11437
933.315	72.36156
933.492	-62.80438
933.67	0.68266
933.847	19.11437
934.025	19.11437
934.202	43.69
934.38	84.64937
934.557	35.49812
934.735	-89.42797
934.912	43.69
935.089	8.87453
935.267	25.25828
935.444	-38.22875
935.622	25.25828
935.799	15.01844
935.976	-77.14016
936.154	-56.66047
936.331	-25.94094
936.508	-66.90031
936.685	12.97047
936.863	12.97047
937.04	27.30625
937.217	-32.08484
937.394	-62.80438
937.571	31.40219
937.748	23.21031
937.926	-56.66047
938.103	51.88187
938.28	-32.08484
938.457	21.16234
938.634	84.64937
938.811	35.49812
938.988	0.68266
939.165	55.97781
939.342	-56.66047
939.519	-85.33203
939.696	-38.22875
939.873	-11.60516
940.05	53.92984
940.227	29.35422
940.404	-9.55719
940.58	-19.79703
940.757	66.21766
940.934	21.16234
941.111	2.73062
941.288	-44.37266
941.464	-27.98891
941.641	-13.65313
941.818	51.88187
941.995	55.97781
942.171	19.11437
942.348	27.30625
942.525	-25.94094
942.701	19.11437
942.878	-77.14016
943.055	-1.36531
943.231	15.01844
943.408	-9.55719
943.584	-25.94094
943.761	-15.70109
943.937	-52.56453
944.114	4.77859
944.29	12.97047
944.467	12.97047
944.643	43.69
944.82	-25.94094
944.996	-56.66047
945.173	37.54609
945.349	15.01844
945.525	84.64937
945.702	8.87453
945.878	33.45016
946.054	-27.98891
946.231	58.02578
946.407	47.78594
946.583	-34.13281
946.759	-48.46859
946.936	-3.41328
947.112	6.82656
947.288	4.77859
947.464	86.69734
947.64	-64.85234
947.816	-5.46125
947.992	-3.41328
948.169	8.87453
948.345	10.9225
948.521	58.02578
948.697	41.64203
948.873	-46.42063
949.049	-30.03688
949.225	-23.89297
949.401	-30.03688
949.577	6.82656
949.753	27.30625
949.929	-52.56453
950.104	-25.94094
950.28	-1.36531
950.456	-40.27672
950.632	-79.18813
950.808	-1.36531
950.984	43.69
951.159	-3.41328
951.335	-48.46859
951.511	-15.70109
951.687	-17.74906
951.862	19.11437
952.038	0.68266
952.214	-1.36531
952.39	51.88187
952.565	-105.81172
952.741	19.11437
952.916	47.78594
953.092	-66.90031
953.268	41.64203
953.443	-13.65313
953.619	4.77859
953.794	-30.03688
953.97	-34.13281
954.145	-99.66781
954.321	-13.65313
954.496	19.11437
954.672	-50.51656
954.847	37.54609
955.022	12.97047
955.198	-17.74906
955.373	0.68266
955.548	51.88187
955.724	23.21031
955.899	-3.41328
956.074	25.25828
956.25	-38.22875
956.425	-62.80438
956.6	-70.99625
956.775	-23.89297
956.951	2.73062
957.126	47.78594
957.301	31.40219
957.476	62.12172
957.651	53.92984
957.826	33.45016
958.001	19.11437
958.176	-13.65313
958.352	43.69
958.527	31.40219
958.702	92.84125
958.877	76.4575
959.052	-34.13281
959.227	4.77859
959.401	27.30625
959.576	-62.80438
959.751	2.73062
959.926	-54.6125
960.101	0.68266
960.276	-11.60516
960.451	-3.41328
960.626	8.87453
960.8	33.45016
960.975	31.40219
961.15	-34.13281
961.325	-50.51656
961.499	-11.60516
961.674	-5.46125
961.849	17.06641
962.023	15.01844
962.198	47.78594
962.373	-25.94094
962.547	10.9225
962.722	39.59406
962.897	4.77859
963.071	6.82656
963.246	31.40219
963.42	21.16234
963.595	-52.56453
963.769	-32.08484
963.944	82.60141
964.118	47.78594
964.293	-30.03688
964.467	4.77859
964.641	47.78594
964.816	-9.55719
964.99	-34.13281
965.165	-17.74906
965.339	-46.42063
965.513	8.87453
965.687	-42.32469
965.862	-13.65313
966.036	-27.98891
966.21	-40.27672
966.384	-3.41328
966.559	35.49812
966.733	-13.65313
966.907	-23.89297
967.081	12.97047
967.255	-19.79703
967.429	-36.18078
967.604	31.40219
967.778	29.35422
967.952	-13.65313
968.126	0.68266
968.3	-46.42063
968.474	15.01844
968.648	66.21766
968.822	-11.60516
968.996	2.73062
969.17	43.69
969.343	-21.845
969.517	-42.32469
969.691	55.97781
969.865	6.82656
970.039	-3.41328
970.213	88.74531
970.387	37.54609
970.56	51.88187
970.734	41.64203
970.908	-5.46125
971.082	-13.65313
971.255	53.92984
971.429	25.25828
971.603	76.4575
971.776	-7.50922
971.95	-30.03688
972.124	8.87453
972.297	-30.03688
972.471	-50.51656
972.644	47.78594
972.818	84.64937
972.991	-9.55719
973.165	-62.80438
973.338	-17.74906
973.512	53.92984
973.685	25.25828
973.859	31.40219
974.032	-34.13281
974.206	64.16969
974.379	21.16234
974.552	-56.66047
974.726	21.16234
974.899	-19.79703
975.072	39.59406
975.246	12.97047
975.419	-1.36531
975.592	-44.37266
975.765	47.78594
975.939	29.35422
976.112	-32.08484
976.285	-1.36531
976.458	-62.80438
976.631	51.88187
976.804	-25.94094
976.977	43.69
977.151	10.9225
977.324	15.01844
977.497	-30.03688
977.67	53.92984
977.843	-52.56453
978.016	-23.89297
978.189	15.01844
978.362	47.78594
978.535	-11.60516
978.707	23.21031
978.88	15.01844
979.053	84.64937
979.226	-1.36531
979.399	4.77859
979.572	-54.6125
979.745	31.40219
979.917	-21.845
980.09	47.78594
980.263	21.16234
980.436	-54.6125
980.608	-36.18078
980.781	0.68266
980.954	-83.28406
981.126	-15.70109
981.299	21.16234
981.472	-48.46859
981.644	-87.38
981.817	47.78594
981.989	12.97047
982.162	37.54609
982.335	-34.13281
982.507	-3.41328
982.68	-3.41328
982.852	-7.50922
983.024	8.87453
983.197	25.25828
983.369	17.06641
983.542	-30.03688
983.714	53.92984
983.886	27.30625
984.059	-9.55719
984.231	39.59406
984.403	23.21031
984.576	47.78594
984.748	-9.55719
984.92	17.06641
985.093	-87.38
985.265	-21.845
985.437	51.88187
985.609	27.30625
985.781	-25.94094
985.953	-15.70109
986.126	-25.94094
986.298	-13.65313
986.47	49.83391
986.642	2.73062
986.814	39.59406
986.986	55.97781
987.158	6.82656
987.33	-32.08484
987.502	-17.74906
987.674	17.06641
987.846	70.31359
988.018	-40.27672
988.19	23.21031
988.361	12.97047
988.533	-79.18813
988.705	90.79328
988.877	6.82656
989.049	47.78594
989.221	-25.94094
989.392	-15.70109
989.564	4.77859
989.736	29.35422
989.908	19.11437
990.079	-79.18813
990.251	-1.36531
990.423	31.40219
990.594	45.73797
990.766	-66.90031
990.937	-27.98891
991.109	41.64203
991.281	-68.94828
991.452	23.21031
991.624	-19.79703
991.795	0.68266
991.967	-5.46125
992.138	-21.845
992.31	-7.50922
992.481	-13.65313
992.652	-7.50922
992.824	-11.60516
992.995	-13.65313
993.167	-30.03688
993.338	10.9225
993.509	-34.13281
993.681	45.73797
993.852	53.92984
994.023	-38.22875
994.194	-34.13281
994.366	-40.27672
994.537	33.45016
994.708	-77.14016
994.879	10.9225
995.05	23.21031
995.221	17.06641
995.393	-27.98891
995.564	31.40219
995.735	-11.60516
995.906	-56.66047
996.077	-1.36531
996.248	-1.36531
996.419	-13.65313
996.59	-13.65313
996.761	-46.42063
996.932	-1.36531
997.103	47.78594
997.274	12.97047
997.444	8.87453
997.615	-15.70109
997.786	31.40219
997.957	21.16234
998.128	-95.57188
998.299	-77.14016
998.469	6.82656
998.64	27.30625
998.811	-7.50922
998.982	33.45016
999.152	-27.98891
999.323	25.25828
999.494	-44.37266
999.664	15.01844
999.835	-32.08484
1000.006	-23.89297
1000.176	-21.845
1000.347	21.16234
1000.517	10.9225
1000.688	-17.74906
1000.858	-38.22875
1001.029	17.06641
1001.199	15.01844
1001.37	-3.41328
1001.54	23.21031
1001.711	33.45016
1001.881	-56.66047
1002.051	31.40219
1002.222	45.73797
1002.392	-7.50922
1002.562	21.16234
1002.733	21.16234
1002.903	2.73062
1003.073	-19.79703
1003.244	-13.65313
1003.414	15.01844
1003.584	-27.98891
1003.754	-48.46859
1003.924	-9.55719
1004.094	-9.55719
1004.265	27.30625
1004.435	-5.46125
1004.605	-3.41328
1004.775	17.06641
1004.945	49.83391
1005.115	-7.50922
1005.285	-17.74906
1005.455	0.68266
1005.625	103.08109
1005.795	-23.89297
1005.965	45.73797
1006.135	25.25828
1006.305	-52.56453
1006.475	66.21766
1006.645	51.88187
1006.814	-3.41328
1006.984	21.16234
1007.154	-70.99625
1007.324	31.40219
1007.494	98.98516
1007.663	47.78594
1007.833	98.98516
1008.003	-48.46859
1008.172	6.82656
1008.342	-60.75641
1008.512	17.06641
1008.681	4.77859
1008.851	-19.79703
1009.021	21.16234
1009.19	4.77859
1009.36	21.16234
1009.529	4.77859
1009.699	19.11437
1009.868	-17.74906
1010.038	-21.845
1010.207	-1.36531
1010.377	-30.03688
1010.546	-9.55719
1010.716	2.73062
1010.885	-25.94094
1011.054	6.82656
1011.224	-1.36531
1011.393	-11.60516
1011.562	-44.37266
1011.732	-58.70844
1011.901	103.08109
1012.07	19.11437
1012.24	27.30625
1012.409	39.59406
1012.578	-60.75641
1012.747	-3.41328
1012.916	33.45016
1013.085	0.68266
1013.255	19.11437
1013.424	-32.08484
1013.593	-32.08484
1013.762	-19.79703
1013.931	17.06641
1014.1	-5.46125
1014.269	4.77859
1014.438	15.01844
1014.607	43.69
1014.776	55.97781
1014.945	-1.36531
1015.114	37.54609
1015.283	25.25828
1015.451	51.88187
1015.62	-9.55719
1015.789	21.16234
1015.958	8.87453
1016.127	-40.27672
1016.296	31.40219
1016.464	23.21031
1016.633	-23.89297
1016.802	-19.79703
1016.971	-1.36531
1017.139	-32.08484
1017.308	2.73062
1017.477	43.69
1017.645	-7.50922
1017.814	47.78594
1017.982	31.40219
1018.151	4.77859
1018.319	17.06641
1018.488	21.16234
1018.657	-36.18078
1018.825	-9.55719
1018.993	6.82656
1019.162	2.73062
1019.33	10.9225
1019.499	62.12172
1019.667	-17.74906
1019.836	41.64203
1020.004	-25.94094
1020.172	17.06641
1020.341	21.16234
1020.509	-64.85234
1020.677	-66.90031
1020.845	10.9225
1021.014	0.68266
1021.182	-3.41328
1021.35	-5.46125
1021.518	8.87453
1021.686	-25.94094
1021.855	0.68266
1022.023	8.87453
1022.191	15.01844
1022.359	58.02578
1022.527	-7.50922
1022.695	2.73062
1022.863	-5.46125
1023.031	-1.36531
1023.199	6.82656
1023.367	-21.845
1023.535	29.35422
1023.703	-46.42063
1023.871	37.54609
1024.039	-1.36531
1024.207	-3.41328
1024.375	-19.79703
1024.542	-68.94828
1024.71	-62.80438
1024.878	-5.46125
1025.046	-93.52391
1025.213	4.77859
1025.381	25.25828
1025.549	10.9225
1025.717	-36.18078
1025.884	31.40219
1026.052	4.77859
1026.22	-21.845
1026.387	-5.46125
1026.555	-79.18813
1026.722	-13.65313
1026.89	-48.46859
1027.058	-62.80438
1027.225	74.40953
1027.393	-38.22875
1027.56	33.45016
1027.728	-30.03688
1027.895	-21.845
1028.062	-17.74906
1028.23	-9.55719
1028.397	-9.55719
1028.565	29.35422
1028.732	-11.60516
1028.899	17.06641
1029.067	10.9225
1029.234	49.83391
1029.401	0.68266
1029.568	-62.80438
1029.736	-15.70109
1029.903	6.82656
1030.07	-11.60516
1030.237	45.73797
1030.404	68.26562
1030.572	66.21766
1030.739	-7.50922
1030.906	-15.70109
1031.073	109.225
1031.24	-13.65313
1031.407	2.73062
1031.574	-7.50922
1031.741	15.01844
1031.908	-1.36531
1032.075	47.78594
1032.242	-34.13281
1032.409	-62.80438
1032.576	-15.70109
1032.743	12.97047
1032.91	-17.74906
1033.076	21.16234
1033.243	-46.42063
1033.41	23.21031
1033.577	8.87453
1033.744	-15.70109
1033.91	27.30625
1034.077	6.82656
1034.244	39.59406
1034.41	-3.41328
1034.577	-5.46125
1034.744	8.87453
1034.91	-21.845
1035.077	33.45016
1035.244	-46.42063
1035.41	29.35422
1035.577	-9.55719
1035.743	58.02578
1035.91	-5.46125
1036.076	-38.22875
1036.243	-5.46125
1036.409	17.06641
1036.576	-77.14016
1036.742	53.92984
1036.908	15.01844
1037.075	4.77859
1037.241	39.59406
1037.408	17.06641
1037.574	17.06641
1037.74	29.35422
1037.906	-27.98891
1038.073	-9.55719
1038.239	4.77859
1038.405	-34.13281
1038.571	23.21031
1038.738	-17.74906
1038.904	-40.27672
1039.07	49.83391
1039.236	-13.65313
1039.402	60.07375
1039.568	-19.79703
1039.734	29.35422
1039.9	29.35422
1040.066	-13.65313
1040.232	0.68266
1040.398	-1.36531
1040.564	27.30625
1040.73	-40.27672
1040.896	-5.46125
1041.062	-50.51656
1041.228	-7.50922
1041.394	-5.46125
1041.56	-11.60516
1041.725	-1.36531
1041.891	35.49812
1042.057	-3.41328
1042.223	-17.74906
1042.389	-23.89297
1042.554	6.82656
1042.72	-27.98891
1042.886	-21.845
1043.051	-19.79703
1043.217	27.30625
1043.383	19.11437
1043.548	25.25828
1043.714	-3.41328
1043.879	62.12172
1044.045	-36.18078
1044.21	84.64937
1044.376	-60.75641
1044.541	2.73062
1044.707	80.55344
1044.872	4.77859
1045.038	-58.70844
1045.203	-79.18813
1045.369	27.30625
1045.534	-27.98891
1045.699	21.16234
1045.865	25.25828
1046.03	-30.03688
1046.195	27.30625
1046.361	-9.55719
1046.526	-3.41328
1046.691	-25.94094
1046.856	-42.32469
1047.021	-17.74906
1047.187	29.35422
1047.352	55.97781
1047.517	111.27297
1047.682	-7.50922
1047.847	-27.98891
1048.012	-30.03688
1048.177	-27.98891
1048.342	-11.60516
1048.507	37.54609
1048.672	41.64203
1048.837	19.11437
1049.002	-27.98891
1049.167	27.30625
1049.332	90.79328
1049.497	-3.41328
1049.662	27.30625
1049.827	-46.42063
1049.992	90.79328
1050.156	10.9225
1050.321	60.07375
1050.486	51.88187
1050.651	10.9225
1050.816	-77.14016
1050.98	27.30625
1051.145	47.78594
1051.31	-60.75641
1051.474	-32.08484
1051.639	66.21766
1051.804	39.59406
1051.968	-21.845
1052.133	6.82656
1052.297	21.16234
1052.462	27.30625
1052.626	45.73797
1052.791	15.01844
1052.955	-93.52391
1053.12	-38.22875
1053.284	4.77859
1053.449	-36.18078
1053.613	-3.41328
1053.777	-3.41328
1053.942	-30.03688
1054.106	2.73062
1054.27	21.16234
1054.435	31.40219
1054.599	-15.70109
1054.763	-3.41328
1054.928	49.83391
1055.092	-15.70109
1055.256	33.45016
1055.42	23.21031
1055.584	-19.79703
1055.748	37.54609
1055.913	-27.98891
1056.077	17.06641
1056.241	6.82656
1056.405	-64.85234
1056.569	-77.14016
1056.733	-60.75641
1056.897	19.11437
1057.061	-11.60516
1057.225	-64.85234
1057.389	25.25828
1057.553	29.35422
1057.717	23.21031
1057.88	41.64203
1058.044	6.82656
1058.208	-5.46125
1058.372	8.87453
1058.536	47.78594
1058.7	-15.70109
1058.863	-17.74906
1059.027	25.25828
1059.191	37.54609
1059.355	21.16234
1059.518	23.21031
1059.682	-44.37266
1059.846	45.73797
1060.009	-25.94094
1060.173	-1.36531
1060.336	51.88187
1060.5	-23.89297
1060.663	-38.22875
1060.827	15.01844
1060.99	-25.94094
1061.154	43.69
1061.317	12.97047
1061.481	-3.41328
1061.644	-38.22875
1061.808	-17.74906
1061.971	-54.6125
1062.134	37.54609
1062.298	-3.41328
1062.461	-23.89297
1062.624	-3.41328
1062.788	2.73062
1062.951	-5.46125
1063.114	17.06641
1063.277	2.73062
1063.441	45.73797
1063.604	-5.46125
1063.767	-1.36531
1063.93	49.83391
1064.093	37.54609
1064.256	-46.42063
1064.419	31.40219
1064.582	-7.50922
1064.745	-13.65313
1064.908	35.49812
1065.071	-79.18813
1065.234	60.07375
1065.397	-7.50922
1065.56	23.21031
1065.723	-1.36531
1065.886	92.84125
1066.049	-42.32469
1066.212	12.97047
1066.375	21.16234
1066.537	-13.65313
1066.7	8.87453
1066.863	-5.46125
1067.026	41.64203
1067.189	-9.55719
1067.351	2.73062
1067.514	10.9225
1067.677	-9.55719
1067.839	-19.79703
1068.002	35.49812
1068.165	33.45016
1068.327	41.64203
1068.49	-62.80438
1068.652	4.77859
1068.815	51.88187
1068.977	-25.94094
1069.14	-7.50922
1069.302	23.21031
1069.465	0.68266
1069.627	21.16234
1069.79	-7.50922
1069.952	-13.65313
1070.114	-23.89297
1070.277	17.06641
1070.439	-21.845
1070.601	-11.60516
1070.764	17.06641
1070.926	37.54609
1071.088	-30.03688
1071.25	33.45016
1071.413	-3.41328
1071.575	-9.55719
1071.737	-60.75641
1071.899	27.30625
1072.061	-9.55719
1072.223	-42.32469
1072.385	31.40219
1072.547	4.77859
1072.71	12.97047
1072.872	-30.03688
1073.034	-36.18078
1073.196	-11.60516
1073.358	-32.08484
1073.519	-30.03688
1073.681	-40.27672
1073.843	2.73062
1074.005	12.97047
1074.167	23.21031
1074.329	-23.89297
1074.491	-38.22875
1074.652	0.68266
1074.814	-30.03688
1074.976	-15.70109
1075.138	-36.18078
1075.299	-27.98891
1075.461	-23.89297
1075.623	-27.98891
1075.785	15.01844
1075.946	39.59406
1076.108	-75.09219
1076.269	98.98516
1076.431	-79.18813
1076.593	-13.65313
1076.754	33.45016
1076.916	45.73797
1077.077	-42.32469
1077.239	-19.79703
1077.4	2.73062
1077.561	-25.94094
1077.723	-17.74906
1077.884	15.01844
1078.046	35.49812
1078.207	21.16234
1078.368	-48.46859
1078.53	8.87453
1078.691	6.82656
1078.852	-1.36531
1079.013	-34.13281
1079.175	-75.09219
1079.336	-36.18078
1079.497	19.11437
1079.658	-9.55719
1079.819	33.45016
1079.981	-3.41328
1080.142	23.21031
1080.303	-48.46859
1080.464	-30.03688
1080.625	45.73797
1080.786	31.40219
1080.947	19.11437
1081.108	74.40953
1081.269	2.73062
1081.43	21.16234
1081.591	-17.74906
1081.752	-75.09219
1081.912	-19.79703
1082.073	4.77859
1082.234	80.55344
1082.395	39.59406
1082.556	23.21031
1082.717	-36.18078
1082.877	-95.57188
1083.038	-50.51656
1083.199	-19.79703
1083.359	-5.46125
1083.52	4.77859
1083.681	-66.90031
1083.841	66.21766
1084.002	-21.845
1084.163	12.97047
1084.323	-25.94094
1084.484	41.64203
1084.644	-42.32469
1084.805	47.78594
1084.965	-11.60516
1085.126	10.9225
1085.286	-1.36531
1085.447	-23.89297
1085.607	8.87453
1085.767	-58.70844
1085.928	53.92984
1086.088	-7.50922
1086.249	-17.74906
1086.409	4.77859
1086.569	29.35422
1086.729	88.74531
1086.89	37.54609
1087.05	10.9225
1087.21	0.68266
1087.37	41.64203
1087.53	10.9225
1087.691	41.64203
1087.851	-36.18078
1088.011	53.92984
1088.171	2.73062
1088.331	19.11437
1088.491	25.25828
1088.651	-25.94094
1088.811	-25.94094
1088.971	-70.99625
1089.131	0.68266
1089.291	-5.46125
1089.451	15.01844
1089.611	60.07375
1089.771	88.74531
1089.93	17.06641
1090.09	-19.79703
1090.25	4.77859
1090.41	-25.94094
1090.57	-54.6125
1090.729	-50.51656
1090.889	39.59406
1091.049	8.87453
1091.208	2.73062
1091.368	-7.50922
1091.528	-11.60516
1091.687	25.25828
1091.847	-27.98891
1092.007	70.31359
1092.166	-5.46125
1092.326	-30.03688
1092.485	-75.09219
1092.645	-42.32469
1092.804	-75.09219
1092.964	58.02578
1093.123	17.06641
1093.282	17.06641
1093.442	4.77859
1093.601	-25.94094
1093.761	-38.22875
1093.92	19.11437
1094.079	41.64203
1094.239	-68.94828
1094.398	-48.46859
1094.557	58.02578
1094.716	21.16234
1094.876	6.82656
1095.035	-9.55719
1095.194	-23.89297
1095.353	-13.65313
1095.512	21.16234
1095.671	78.50547
1095.83	41.64203
1095.989	-5.46125
1096.148	-79.18813
1096.307	-50.51656
1096.466	-17.74906
1096.625	-11.60516
1096.784	-38.22875
1096.943	-15.70109
1097.102	8.87453
1097.261	-17.74906
1097.42	90.79328
1097.579	4.77859
1097.738	47.78594
1097.897	-5.46125
1098.055	-9.55719
1098.214	27.30625
1098.373	-83.28406
1098.532	-21.845
1098.69	-5.46125
1098.849	-9.55719
1099.008	15.01844
1099.166	-60.75641
1099.325	-9.55719
1099.484	31.40219
1099.642	62.12172
1099.801	-25.94094
1099.959	-19.79703
1100.118	-17.74906
1100.276	47.78594
1100.435	-23.89297
1100.593	-73.04422
1100.752	-27.98891
1100.91	17.06641
1101.068	-19.79703
1101.227	41.64203
1101.385	19.11437
1101.544	64.16969
1101.702	72.36156
1101.86	51.88187
1102.018	-30.03688
1102.177	-23.89297
1102.335	-17.74906
1102.493	-73.04422
1102.651	21.16234
1102.809	8.87453
1102.968	62.12172
1103.126	15.01844
1103.284	-11.60516
1103.442	-19.79703
1103.6	51.88187
1103.758	-3.41328
1103.916	17.06641
1104.074	49.83391
1104.232	-7.50922
1104.39	-36.18078
1104.548	-56.66047
1104.706	-30.03688
1104.864	-13.65313
1105.022	10.9225
1105.179	2.73062
1105.337	-15.70109
1105.495	31.40219
1105.653	23.21031
1105.811	51.88187
1105.968	25.25828
1106.126	49.83391
1106.284	55.97781
1106.441	-21.845
1106.599	-23.89297
1106.757	49.83391
1106.914	-21.845
1107.072	2.73062
1107.23	-83.28406
1107.387	-11.60516
1107.545	23.21031
1107.702	23.21031
1107.86	29.35422
1108.017	55.97781
1108.175	58.02578
1108.332	90.79328
1108.489	78.50547
1108.647	-25.94094
1108.804	8.87453
1108.962	-17.74906
1109.119	35.49812
1109.276	33.45016
1109.433	-7.50922
1109.591	15.01844
1109.748	15.01844
1109.905	-30.03688
1110.062	-3.41328
1110.22	-17.74906
1110.377	-93.52391
1110.534	12.97047
1110.691	4.77859
1110.848	12.97047
1111.005	23.21031
1111.162	6.82656
1111.319	23.21031
1111.476	-48.46859
1111.633	19.11437
1111.79	37.54609
1111.947	0.68266
1112.104	25.25828
1112.261	-44.37266
1112.418	64.16969
1112.575	0.68266
1112.732	-34.13281
1112.888	82.60141
1113.045	-54.6125
1113.202	41.64203
1113.359	66.21766
1113.515	37.54609
1113.672	49.83391
1113.829	-1.36531
1113.985	23.21031
1114.142	-1.36531
1114.299	62.12172
1114.455	-34.13281
1114.612	17.06641
1114.769	-32.08484
1114.925	37.54609
1115.082	37.54609
1115.238	-73.04422
1115.395	-1.36531
1115.551	19.11437
1115.707	25.25828
1115.864	19.11437
1116.02	8.87453
1116.177	-13.65313
1116.333	-50.51656
1116.489	2.73062
1116.646	-25.94094
1116.802	-38.22875
1116.958	-23.89297
1117.114	-7.50922
1117.271	23.21031
1117.427	2.73062
1117.583	-1.36531
1117.739	-44.37266
1117.895	8.87453
1118.051	-11.60516
1118.208	-56.66047
1118.364	33.45016
1118.52	-11.60516
1118.676	39.59406
1118.832	-36.18078
1118.988	43.69
1119.144	-15.70109
1119.3	23.21031
1119.456	-36.18078
1119.611	-60.75641
1119.767	31.40219
1119.923	-9.55719
1120.079	12.97047
1120.235	15.01844
1120.391	-68.94828
1120.546	17.06641
1120.702	29.35422
1120.858	17.06641
1121.014	-5.46125
1121.169	51.88187
1121.325	-54.6125
1121.481	55.97781
1121.636	68.26562
1121.792	-44.37266
1121.947	-44.37266
1122.103	-5.46125
1122.259	2.73062
1122.414	60.07375
1122.57	-1.36531
1122.725	-38.22875
1122.881	-50.51656
1123.036	-48.46859
1123.191	31.40219
1123.347	-62.80438
1123.502	23.21031
1123.657	51.88187
1123.813	43.69
1123.968	10.9225
1124.123	47.78594
1124.279	-30.03688
1124.434	6.82656
1124.589	10.9225
1124.744	-3.41328
1124.9	0.68266
1125.055	0.68266
1125.21	31.40219
1125.365	-46.42063
1125.52	55.97781
1125.675	25.25828
1125.83	53.92984
1125.985	-21.845
1126.14	43.69
1126.295	-36.18078
1126.45	-9.55719
1126.605	-70.99625
