Data from backuniphase1122p_USB4C031521__0__16-12-54-022.txt Node

Date: Wed May 06 16:12:54 CEST 2026
User: FIDOPA_3
Spectrometer: USB4C03152
Scans to average: 1
Trigger mode: 4
Integration Time (sec): 2.000000E-3
Electric dark correction enabled: true
Boxcar width: 0
XAxis mode: Wavelengths
Number of Pixels in Spectrum: 3648
>>>>>Begin Spectral Data<<<<<
445.929	-5.46125
446.14	-5.46125
446.351	-5.46125
446.562	-9.55719
446.773	15.01844
446.984	-25.94094
447.194	60.07375
447.405	-81.23609
447.616	-38.22875
447.827	-27.98891
448.038	4.77859
448.249	12.97047
448.459	76.4575
448.67	-23.89297
448.881	27.30625
449.092	35.49812
449.303	-19.79703
449.513	23.21031
449.724	43.69
449.935	-42.32469
450.146	-32.08484
450.356	-17.74906
450.567	41.64203
450.778	-32.08484
450.988	41.64203
451.199	29.35422
451.41	45.73797
451.62	23.21031
451.831	35.49812
452.042	-54.6125
452.252	90.79328
452.463	19.11437
452.674	17.06641
452.884	25.25828
453.095	-9.55719
453.305	4.77859
453.516	4.77859
453.727	53.92984
453.937	15.01844
454.148	21.16234
454.358	-15.70109
454.569	62.12172
454.779	33.45016
454.99	41.64203
455.2	0.68266
455.411	-25.94094
455.621	-5.46125
455.832	-42.32469
456.042	8.87453
456.253	39.59406
456.463	-56.66047
456.674	-7.50922
456.884	-5.46125
457.095	8.87453
457.305	-1.36531
457.515	-21.845
457.726	37.54609
457.936	31.40219
458.147	43.69
458.357	-23.89297
458.567	51.88188
458.778	15.01844
458.988	96.93719
459.198	-15.70109
459.409	17.06641
459.619	23.21031
459.829	55.97781
460.039	37.54609
460.25	-36.18078
460.46	-13.65313
460.67	-68.94828
460.881	70.31359
461.091	-34.13281
461.301	33.45016
461.511	-30.03688
461.721	12.97047
461.932	-15.70109
462.142	107.17703
462.352	21.16234
462.562	-68.94828
462.772	21.16234
462.983	10.9225
463.193	21.16234
463.403	-3.41328
463.613	-9.55719
463.823	0.68266
464.033	21.16234
464.243	17.06641
464.453	25.25828
464.664	70.31359
464.874	37.54609
465.084	0.68266
465.294	70.31359
465.504	37.54609
465.714	-15.70109
465.924	21.16234
466.134	-9.55719
466.344	-15.70109
466.554	12.97047
466.764	-52.56453
466.974	64.16969
467.184	23.21031
467.394	-19.79703
467.604	39.59406
467.814	82.60141
468.024	-27.98891
468.233	8.87453
468.443	92.84125
468.653	31.40219
468.863	-5.46125
469.073	53.92984
469.283	-19.79703
469.493	43.69
469.703	-25.94094
469.912	17.06641
470.122	23.21031
470.332	-5.46125
470.542	25.25828
470.752	4.77859
470.962	-15.70109
471.171	-9.55719
471.381	0.68266
471.591	-23.89297
471.801	-13.65313
472.01	-38.22875
472.22	51.88188
472.43	25.25828
472.64	-11.60516
472.849	21.16234
473.059	117.41687
473.269	90.79328
473.478	-25.94094
473.688	-5.46125
473.898	-44.37266
474.107	4.77859
474.317	33.45016
474.527	41.64203
474.736	-17.74906
474.946	17.06641
475.155	51.88188
475.365	-21.845
475.575	47.78594
475.784	53.92984
475.994	62.12172
476.203	-9.55719
476.413	15.01844
476.622	31.40219
476.832	31.40219
477.041	-27.98891
477.251	6.82656
477.46	33.45016
477.67	15.01844
477.879	45.73797
478.089	37.54609
478.298	-19.79703
478.508	-9.55719
478.717	-36.18078
478.927	8.87453
479.136	55.97781
479.345	31.40219
479.555	92.84125
479.764	12.97047
479.974	72.36156
480.183	82.60141
480.392	70.31359
480.602	-48.46859
480.811	15.01844
481.02	64.16969
481.23	62.12172
481.439	35.49812
481.648	8.87453
481.858	90.79328
482.067	-5.46125
482.276	37.54609
482.485	-11.60516
482.695	25.25828
482.904	62.12172
483.113	-3.41328
483.322	6.82656
483.532	23.21031
483.741	-15.70109
483.95	-27.98891
484.159	15.01844
484.368	-17.74906
484.577	60.07375
484.787	2.73062
484.996	12.97047
485.205	31.40219
485.414	39.59406
485.623	60.07375
485.832	0.68266
486.041	31.40219
486.25	21.16234
486.459	35.49812
486.669	-1.36531
486.878	62.12172
487.087	66.21766
487.296	21.16234
487.505	-9.55719
487.714	27.30625
487.923	19.11437
488.132	4.77859
488.341	74.40953
488.55	74.40953
488.759	31.40219
488.968	2.73062
489.177	53.92984
489.385	-93.52391
489.594	2.73062
489.803	21.16234
490.012	66.21766
490.221	-32.08484
490.43	21.16234
490.639	43.69
490.848	-48.46859
491.057	23.21031
491.265	45.73797
491.474	-9.55719
491.683	17.06641
491.892	-36.18078
492.101	107.17703
492.31	8.87453
492.518	-13.65313
492.727	0.68266
492.936	29.35422
493.145	25.25828
493.353	-46.42062
493.562	37.54609
493.771	23.21031
493.98	-5.46125
494.188	-15.70109
494.397	17.06641
494.606	21.16234
494.814	60.07375
495.023	41.64203
495.232	8.87453
495.44	6.82656
495.649	88.74531
495.858	-17.74906
496.066	45.73797
496.275	70.31359
496.483	-60.75641
496.692	23.21031
496.901	31.40219
497.109	33.45016
497.318	49.83391
497.526	70.31359
497.735	58.02578
497.943	31.40219
498.152	25.25828
498.36	-3.41328
498.569	10.9225
498.777	-68.94828
498.986	27.30625
499.194	35.49812
499.403	45.73797
499.611	27.30625
499.82	-30.03688
500.028	39.59406
500.236	33.45016
500.445	-42.32469
500.653	-54.6125
500.862	55.97781
501.07	-81.23609
501.278	27.30625
501.487	-36.18078
501.695	33.45016
501.903	23.21031
502.112	27.30625
502.32	72.36156
502.528	62.12172
502.737	-3.41328
502.945	8.87453
503.153	-32.08484
503.361	55.97781
503.57	-17.74906
503.778	0.68266
503.986	0.68266
504.194	17.06641
504.403	19.11437
504.611	29.35422
504.819	45.73797
505.027	53.92984
505.235	90.79328
505.443	53.92984
505.652	-21.845
505.86	-15.70109
506.068	90.79328
506.276	31.40219
506.484	-36.18078
506.692	21.16234
506.9	43.69
507.108	4.77859
507.316	25.25828
507.524	-30.03688
507.733	-23.89297
507.941	90.79328
508.149	8.87453
508.357	35.49812
508.565	-3.41328
508.773	64.16969
508.981	62.12172
509.189	8.87453
509.397	-23.89297
509.605	-7.50922
509.812	29.35422
510.02	0.68266
510.228	27.30625
510.436	-11.60516
510.644	-52.56453
510.852	2.73062
511.06	-3.41328
511.268	-13.65313
511.476	-17.74906
511.684	45.73797
511.891	-5.46125
512.099	37.54609
512.307	-105.81172
512.515	-7.50922
512.723	8.87453
512.93	-27.98891
513.138	-27.98891
513.346	0.68266
513.554	17.06641
513.761	23.21031
513.969	35.49812
514.177	62.12172
514.385	-44.37266
514.592	19.11437
514.8	27.30625
515.008	25.25828
515.215	10.9225
515.423	35.49812
515.631	37.54609
515.838	-58.70844
516.046	-5.46125
516.254	-3.41328
516.461	-32.08484
516.669	45.73797
516.876	12.97047
517.084	45.73797
517.292	35.49812
517.499	-9.55719
517.707	-13.65313
517.914	15.01844
518.122	78.50547
518.329	39.59406
518.537	-73.04422
518.744	-54.6125
518.952	17.06641
519.159	88.74531
519.367	-11.60516
519.574	135.84859
519.782	-68.94828
519.989	41.64203
520.197	-9.55719
520.404	-19.79703
520.611	19.11437
520.819	17.06641
521.026	37.54609
521.234	74.40953
521.441	39.59406
521.648	-50.51656
521.856	-3.41328
522.063	62.12172
522.27	55.97781
522.478	0.68266
522.685	64.16969
522.892	-5.46125
523.1	31.40219
523.307	86.69734
523.514	-50.51656
523.721	-36.18078
523.929	15.01844
524.136	-9.55719
524.343	-70.99625
524.55	2.73062
524.757	45.73797
524.965	17.06641
525.172	27.30625
525.379	49.83391
525.586	-38.22875
525.793	-3.41328
526	76.4575
526.208	47.78594
526.415	-3.41328
526.622	107.17703
526.829	43.69
527.036	12.97047
527.243	27.30625
527.45	96.93719
527.657	27.30625
527.864	58.02578
528.071	6.82656
528.278	-1.36531
528.485	39.59406
528.692	94.88922
528.899	10.9225
529.106	49.83391
529.313	19.11437
529.52	51.88188
529.727	-1.36531
529.934	103.08109
530.141	-36.18078
530.348	25.25828
530.555	-27.98891
530.762	60.07375
530.968	6.82656
531.175	17.06641
531.382	-11.60516
531.589	21.16234
531.796	-19.79703
532.003	98.98516
532.21	-38.22875
532.416	47.78594
532.623	27.30625
532.83	6.82656
533.037	21.16234
533.243	-32.08484
533.45	101.03312
533.657	39.59406
533.864	-19.79703
534.07	64.16969
534.277	-42.32469
534.484	41.64203
534.691	37.54609
534.897	27.30625
535.104	-32.08484
535.311	23.21031
535.517	15.01844
535.724	-19.79703
535.93	27.30625
536.137	-5.46125
536.344	-27.98891
536.55	41.64203
536.757	-9.55719
536.963	39.59406
537.17	47.78594
537.377	66.21766
537.583	23.21031
537.79	19.11437
537.996	-17.74906
538.203	41.64203
538.409	41.64203
538.616	82.60141
538.822	39.59406
539.029	-17.74906
539.235	47.78594
539.442	35.49812
539.648	-25.94094
539.854	64.16969
540.061	8.87453
540.267	78.50547
540.474	4.77859
540.68	33.45016
540.886	-13.65313
541.093	21.16234
541.299	37.54609
541.505	-19.79703
541.712	43.69
541.918	27.30625
542.124	-9.55719
542.331	-5.46125
542.537	33.45016
542.743	-7.50922
542.949	-13.65313
543.156	10.9225
543.362	10.9225
543.568	109.225
543.774	17.06641
543.981	-15.70109
544.187	41.64203
544.393	35.49812
544.599	-23.89297
544.805	35.49812
545.011	70.31359
545.218	27.30625
545.424	-44.37266
545.63	45.73797
545.836	45.73797
546.042	58.02578
546.248	4.77859
546.454	0.68266
546.66	-25.94094
546.866	-23.89297
547.072	12.97047
547.278	17.06641
547.484	41.64203
547.69	-34.13281
547.896	4.77859
548.102	-40.27672
548.308	78.50547
548.514	12.97047
548.72	-64.85234
548.926	35.49812
549.132	27.30625
549.338	47.78594
549.544	64.16969
549.75	27.30625
549.956	-50.51656
550.162	15.01844
550.368	-60.75641
550.574	12.97047
550.779	23.21031
550.985	90.79328
551.191	15.01844
551.397	-5.46125
551.603	-5.46125
551.808	-46.42062
552.014	-19.79703
552.22	84.64937
552.426	96.93719
552.632	37.54609
552.837	31.40219
553.043	35.49812
553.249	68.26562
553.454	-60.75641
553.66	43.69
553.866	-5.46125
554.071	41.64203
554.277	23.21031
554.483	-42.32469
554.688	-1.36531
554.894	39.59406
555.1	137.89656
555.305	-13.65313
555.511	82.60141
555.716	-7.50922
555.922	0.68266
556.128	39.59406
556.333	-32.08484
556.539	-36.18078
556.744	62.12172
556.95	-1.36531
557.155	55.97781
557.361	-17.74906
557.566	66.21766
557.772	-11.60516
557.977	64.16969
558.183	82.60141
558.388	-3.41328
558.594	49.83391
558.799	47.78594
559.004	51.88188
559.21	10.9225
559.415	53.92984
559.621	-3.41328
559.826	21.16234
560.031	47.78594
560.237	-17.74906
560.442	82.60141
560.647	6.82656
560.853	-7.50922
561.058	17.06641
561.263	15.01844
561.468	12.97047
561.674	25.25828
561.879	8.87453
562.084	62.12172
562.289	25.25828
562.495	74.40953
562.7	2.73062
562.905	-19.79703
563.11	-1.36531
563.315	45.73797
563.521	27.30625
563.726	-5.46125
563.931	4.77859
564.136	41.64203
564.341	-52.56453
564.546	29.35422
564.751	115.36891
564.956	33.45016
565.162	-46.42062
565.367	2.73062
565.572	-13.65313
565.777	33.45016
565.982	4.77859
566.187	39.59406
566.392	12.97047
566.597	76.4575
566.802	45.73797
567.007	37.54609
567.212	4.77859
567.417	4.77859
567.622	6.82656
567.827	8.87453
568.031	29.35422
568.236	29.35422
568.441	15.01844
568.646	-32.08484
568.851	39.59406
569.056	-7.50922
569.261	60.07375
569.466	-11.60516
569.67	-21.845
569.875	-17.74906
570.08	6.82656
570.285	84.64937
570.49	86.69734
570.694	92.84125
570.899	47.78594
571.104	8.87453
571.309	-7.50922
571.513	82.60141
571.718	62.12172
571.923	49.83391
572.128	-1.36531
572.332	27.30625
572.537	-15.70109
572.742	8.87453
572.946	12.97047
573.151	27.30625
573.355	51.88188
573.56	55.97781
573.765	17.06641
573.969	-1.36531
574.174	4.77859
574.378	-40.27672
574.583	-23.89297
574.788	17.06641
574.992	17.06641
575.197	-5.46125
575.401	64.16969
575.606	-13.65313
575.81	-5.46125
576.015	66.21766
576.219	25.25828
576.424	-3.41328
576.628	-19.79703
576.832	55.97781
577.037	-11.60516
577.241	29.35422
577.446	37.54609
577.65	-32.08484
577.854	58.02578
578.059	82.60141
578.263	62.12172
578.467	8.87453
578.672	-7.50922
578.876	60.07375
579.08	-34.13281
579.285	-23.89297
579.489	19.11437
579.693	-30.03688
579.898	12.97047
580.102	21.16234
580.306	41.64203
580.51	60.07375
580.715	55.97781
580.919	31.40219
581.123	60.07375
581.327	-3.41328
581.531	12.97047
581.735	37.54609
581.94	-62.80437
582.144	0.68266
582.348	39.59406
582.552	-1.36531
582.756	25.25828
582.96	76.4575
583.164	15.01844
583.368	17.06641
583.572	-3.41328
583.776	-48.46859
583.98	45.73797
584.185	-11.60516
584.389	17.06641
584.593	119.46484
584.797	53.92984
585	-3.41328
585.204	-1.36531
585.408	58.02578
585.612	-5.46125
585.816	21.16234
586.02	41.64203
586.224	55.97781
586.428	-27.98891
586.632	-5.46125
586.836	-44.37266
587.04	6.82656
587.244	80.55344
587.447	62.12172
587.651	35.49812
587.855	17.06641
588.059	45.73797
588.263	76.4575
588.466	4.77859
588.67	-38.22875
588.874	-44.37266
589.078	0.68266
589.281	25.25828
589.485	35.49812
589.689	-9.55719
589.893	21.16234
590.096	-9.55719
590.3	21.16234
590.504	45.73797
590.707	51.88188
590.911	45.73797
591.115	17.06641
591.318	37.54609
591.522	15.01844
591.725	8.87453
591.929	-30.03688
592.133	-11.60516
592.336	-5.46125
592.54	0.68266
592.743	150.18438
592.947	-38.22875
593.15	-17.74906
593.354	-19.79703
593.557	-52.56453
593.761	12.97047
593.964	25.25828
594.168	60.07375
594.371	-54.6125
594.575	64.16969
594.778	21.16234
594.981	17.06641
595.185	60.07375
595.388	-5.46125
595.592	33.45016
595.795	0.68266
595.998	23.21031
596.202	37.54609
596.405	41.64203
596.608	-66.90031
596.812	-7.50922
597.015	-25.94094
597.218	-44.37266
597.421	37.54609
597.625	62.12172
597.828	-13.65313
598.031	64.16969
598.234	-11.60516
598.438	43.69
598.641	-19.79703
598.844	23.21031
599.047	31.40219
599.25	2.73062
599.453	8.87453
599.657	12.97047
599.86	0.68266
600.063	74.40953
600.266	-1.36531
600.469	6.82656
600.672	-79.18813
600.875	33.45016
601.078	29.35422
601.281	74.40953
601.484	70.31359
601.687	-40.27672
601.89	27.30625
602.093	27.30625
602.296	-23.89297
602.499	4.77859
602.702	2.73062
602.905	78.50547
603.108	2.73062
603.311	68.26562
603.514	33.45016
603.717	53.92984
603.92	-25.94094
604.123	-38.22875
604.326	58.02578
604.529	39.59406
604.731	23.21031
604.934	55.97781
605.137	15.01844
605.34	2.73062
605.543	4.77859
605.745	27.30625
605.948	10.9225
606.151	4.77859
606.354	-58.70844
606.557	-70.99625
606.759	49.83391
606.962	2.73062
607.165	55.97781
607.367	-46.42062
607.57	4.77859
607.773	25.25828
607.975	-56.66047
608.178	35.49812
608.381	6.82656
608.583	88.74531
608.786	17.06641
608.989	27.30625
609.191	76.4575
609.394	23.21031
609.596	-21.845
609.799	49.83391
610.001	60.07375
610.204	21.16234
610.406	41.64203
610.609	4.77859
610.811	72.36156
611.014	-60.75641
611.216	8.87453
611.419	72.36156
611.621	37.54609
611.824	68.26562
612.026	23.21031
612.229	49.83391
612.431	4.77859
612.633	45.73797
612.836	17.06641
613.038	-1.36531
613.24	19.11437
613.443	-11.60516
613.645	58.02578
613.847	90.79328
614.05	10.9225
614.252	43.69
614.454	39.59406
614.657	31.40219
614.859	-3.41328
615.061	27.30625
615.263	-3.41328
615.466	0.68266
615.668	-1.36531
615.87	41.64203
616.072	94.88922
616.274	31.40219
616.476	43.69
616.679	96.93719
616.881	-15.70109
617.083	-32.08484
617.285	-50.51656
617.487	94.88922
617.689	-97.61984
617.891	-36.18078
618.093	47.78594
618.295	21.16234
618.497	19.11437
618.699	49.83391
618.901	35.49812
619.103	25.25828
619.305	29.35422
619.507	41.64203
619.709	68.26562
619.911	74.40953
620.113	111.27297
620.315	4.77859
620.517	41.64203
620.719	10.9225
620.921	49.83391
621.123	74.40953
621.325	-97.61984
621.527	31.40219
621.728	2.73062
621.93	-56.66047
622.132	-11.60516
622.334	27.30625
622.536	15.01844
622.737	-13.65313
622.939	-19.79703
623.141	25.25828
623.343	29.35422
623.544	15.01844
623.746	96.93719
623.948	135.84859
624.15	-19.79703
624.351	47.78594
624.553	-32.08484
624.755	35.49812
624.956	4.77859
625.158	64.16969
625.36	-30.03688
625.561	25.25828
625.763	68.26562
625.964	12.97047
626.166	-32.08484
626.367	82.60141
626.569	68.26562
626.771	33.45016
626.972	58.02578
627.174	29.35422
627.375	-13.65313
627.577	43.69
627.778	-17.74906
627.98	60.07375
628.181	-7.50922
628.382	53.92984
628.584	-5.46125
628.785	39.59406
628.987	35.49812
629.188	12.97047
629.39	-23.89297
629.591	19.11437
629.792	45.73797
629.994	-17.74906
630.195	-19.79703
630.396	25.25828
630.598	12.97047
630.799	-64.85234
631	12.97047
631.201	-42.32469
631.403	-27.98891
631.604	15.01844
631.805	4.77859
632.006	23.21031
632.208	2.73062
632.409	-40.27672
632.61	35.49812
632.811	4.77859
633.012	6.82656
633.214	23.21031
633.415	31.40219
633.616	-1.36531
633.817	4.77859
634.018	33.45016
634.219	88.74531
634.42	-13.65313
634.621	8.87453
634.822	-1.36531
635.023	55.97781
635.224	15.01844
635.425	-3.41328
635.626	49.83391
635.827	-32.08484
636.028	17.06641
636.229	12.97047
636.43	-11.60516
636.631	-1.36531
636.832	-1.36531
637.033	-40.27672
637.234	-30.03688
637.435	39.59406
637.636	37.54609
637.837	-68.94828
638.037	17.06641
638.238	-50.51656
638.439	21.16234
638.64	47.78594
638.841	47.78594
639.042	-21.845
639.242	25.25828
639.443	17.06641
639.644	33.45016
639.845	35.49812
640.045	-3.41328
640.246	37.54609
640.447	43.69
640.648	45.73797
640.848	-17.74906
641.049	37.54609
641.25	0.68266
641.45	10.9225
641.651	78.50547
641.851	21.16234
642.052	37.54609
642.253	-23.89297
642.453	68.26562
642.654	-60.75641
642.854	12.97047
643.055	-9.55719
643.255	10.9225
643.456	-50.51656
643.656	-5.46125
643.857	10.9225
644.057	39.59406
644.258	-21.845
644.458	27.30625
644.659	12.97047
644.859	2.73062
645.06	-1.36531
645.26	66.21766
645.46	-32.08484
645.661	-15.70109
645.861	-9.55719
646.062	-30.03688
646.262	64.16969
646.462	49.83391
646.663	27.30625
646.863	-5.46125
647.063	15.01844
647.263	21.16234
647.464	-17.74906
647.664	-68.94828
647.864	-11.60516
648.064	47.78594
648.265	23.21031
648.465	-1.36531
648.665	-56.66047
648.865	23.21031
649.065	-15.70109
649.266	33.45016
649.466	68.26562
649.666	37.54609
649.866	19.11437
650.066	-38.22875
650.266	60.07375
650.466	8.87453
650.666	6.82656
650.866	27.30625
651.067	37.54609
651.267	21.16234
651.467	-3.41328
651.667	4.77859
651.867	-3.41328
652.067	6.82656
652.267	58.02578
652.466	25.25828
652.666	-30.03688
652.866	45.73797
653.066	-50.51656
653.266	19.11437
653.466	45.73797
653.666	-32.08484
653.866	4.77859
654.066	-83.28406
654.266	-1.36531
654.465	-30.03688
654.665	29.35422
654.865	70.31359
655.065	33.45016
655.265	27.30625
655.464	37.54609
655.664	17.06641
655.864	-42.32469
656.064	35.49812
656.263	19.11437
656.463	15.01844
656.663	35.49812
656.862	10.9225
657.062	-19.79703
657.262	33.45016
657.461	41.64203
657.661	12.97047
657.861	17.06641
658.06	31.40219
658.26	39.59406
658.459	55.97781
658.659	45.73797
658.858	6.82656
659.058	-44.37266
659.258	47.78594
659.457	-50.51656
659.657	82.60141
659.856	-7.50922
660.056	-54.6125
660.255	19.11437
660.454	41.64203
660.654	-7.50922
660.853	49.83391
661.053	-13.65313
661.252	35.49812
661.452	-5.46125
661.651	12.97047
661.85	10.9225
662.05	0.68266
662.249	8.87453
662.448	41.64203
662.648	72.36156
662.847	35.49812
663.046	-1.36531
663.245	10.9225
663.445	12.97047
663.644	47.78594
663.843	-27.98891
664.042	19.11437
664.242	-32.08484
664.441	33.45016
664.64	47.78594
664.839	-7.50922
665.038	6.82656
665.237	43.69
665.437	39.59406
665.636	21.16234
665.835	-15.70109
666.034	-3.41328
666.233	-42.32469
666.432	-60.75641
666.631	-36.18078
666.83	29.35422
667.029	98.98516
667.228	25.25828
667.427	51.88188
667.626	39.59406
667.825	64.16969
668.024	41.64203
668.223	47.78594
668.422	19.11437
668.621	-30.03688
668.82	21.16234
669.019	-21.845
669.218	21.16234
669.417	17.06641
669.615	15.01844
669.814	25.25828
670.013	4.77859
670.212	47.78594
670.411	19.11437
670.609	-23.89297
670.808	76.4575
671.007	17.06641
671.206	8.87453
671.405	121.51281
671.603	21.16234
671.802	-27.98891
672.001	21.16234
672.199	4.77859
672.398	-13.65313
672.597	4.77859
672.795	76.4575
672.994	17.06641
673.193	-7.50922
673.391	19.11437
673.59	-21.845
673.789	49.83391
673.987	-27.98891
674.186	15.01844
674.384	39.59406
674.583	-52.56453
674.781	-48.46859
674.98	21.16234
675.178	-5.46125
675.377	47.78594
675.575	43.69
675.774	-23.89297
675.972	-21.845
676.171	82.60141
676.369	33.45016
676.567	37.54609
676.766	-17.74906
676.964	51.88188
677.163	55.97781
677.361	-15.70109
677.559	35.49812
677.758	19.11437
677.956	103.08109
678.154	-34.13281
678.353	62.12172
678.551	-9.55719
678.749	15.01844
678.947	-52.56453
679.146	-7.50922
679.344	-23.89297
679.542	6.82656
679.74	-15.70109
679.938	35.49812
680.137	-25.94094
680.335	37.54609
680.533	66.21766
680.731	15.01844
680.929	29.35422
681.127	74.40953
681.325	92.84125
681.523	43.69
681.721	-7.50922
681.92	-32.08484
682.118	19.11437
682.316	4.77859
682.514	66.21766
682.712	-32.08484
682.91	-9.55719
683.108	21.16234
683.306	-17.74906
683.504	43.69
683.701	62.12172
683.899	25.25828
684.097	10.9225
684.295	10.9225
684.493	-11.60516
684.691	-15.70109
684.889	17.06641
685.087	31.40219
685.284	25.25828
685.482	-23.89297
685.68	-44.37266
685.878	74.40953
686.076	25.25828
686.273	15.01844
686.471	31.40219
686.669	53.92984
686.867	39.59406
687.064	41.64203
687.262	4.77859
687.46	29.35422
687.657	37.54609
687.855	84.64937
688.053	-23.89297
688.25	33.45016
688.448	-1.36531
688.646	35.49812
688.843	47.78594
689.041	-68.94828
689.238	10.9225
689.436	12.97047
689.633	-13.65313
689.831	12.97047
690.029	-13.65313
690.226	35.49812
690.424	17.06641
690.621	58.02578
690.818	47.78594
691.016	64.16969
691.213	51.88188
691.411	84.64937
691.608	-25.94094
691.806	6.82656
692.003	-36.18078
692.2	6.82656
692.398	-44.37266
692.595	43.69
692.792	6.82656
692.99	12.97047
693.187	62.12172
693.384	74.40953
693.582	31.40219
693.779	21.16234
693.976	-21.845
694.173	4.77859
694.371	-7.50922
694.568	78.50547
694.765	-25.94094
694.962	-50.51656
695.159	25.25828
695.356	39.59406
695.554	-7.50922
695.751	-68.94828
695.948	21.16234
696.145	74.40953
696.342	39.59406
696.539	35.49812
696.736	-32.08484
696.933	8.87453
697.13	-27.98891
697.327	0.68266
697.524	78.50547
697.721	-19.79703
697.918	58.02578
698.115	92.84125
698.312	0.68266
698.509	35.49812
698.706	12.97047
698.903	6.82656
699.1	72.36156
699.297	-64.85234
699.494	-34.13281
699.691	-46.42062
699.887	-11.60516
700.084	15.01844
700.281	12.97047
700.478	-1.36531
700.675	133.80062
700.871	43.69
701.068	49.83391
701.265	19.11437
701.462	6.82656
701.658	19.11437
701.855	-17.74906
702.052	-5.46125
702.249	111.27297
702.445	-25.94094
702.642	29.35422
702.839	-27.98891
703.035	25.25828
703.232	2.73062
703.428	-42.32469
703.625	15.01844
703.822	-13.65313
704.018	64.16969
704.215	6.82656
704.411	-27.98891
704.608	60.07375
704.804	-3.41328
705.001	-11.60516
705.197	25.25828
705.394	25.25828
705.59	-79.18813
705.787	25.25828
705.983	76.4575
706.18	-17.74906
706.376	-1.36531
706.572	-40.27672
706.769	51.88188
706.965	-44.37266
707.161	43.69
707.358	0.68266
707.554	37.54609
707.75	25.25828
707.947	-30.03688
708.143	-93.52391
708.339	82.60141
708.536	-15.70109
708.732	25.25828
708.928	2.73062
709.124	37.54609
709.32	-5.46125
709.517	4.77859
709.713	-68.94828
709.909	49.83391
710.105	47.78594
710.301	-30.03688
710.497	51.88188
710.693	31.40219
710.89	66.21766
711.086	-7.50922
711.282	17.06641
711.478	12.97047
711.674	49.83391
711.87	-3.41328
712.066	-9.55719
712.262	8.87453
712.458	-17.74906
712.654	105.12906
712.85	-5.46125
713.046	-50.51656
713.242	-9.55719
713.438	-38.22875
713.633	-7.50922
713.829	33.45016
714.025	-23.89297
714.221	39.59406
714.417	80.55344
714.613	10.9225
714.809	12.97047
715.004	31.40219
715.2	-11.60516
715.396	72.36156
715.592	12.97047
715.788	25.25828
715.983	39.59406
716.179	19.11437
716.375	6.82656
716.57	25.25828
716.766	39.59406
716.962	45.73797
717.157	33.45016
717.353	10.9225
717.549	53.92984
717.744	-11.60516
717.94	-27.98891
718.136	41.64203
718.331	-5.46125
718.527	-3.41328
718.722	33.45016
718.918	53.92984
719.113	-25.94094
719.309	25.25828
719.504	25.25828
719.7	-3.41328
719.895	6.82656
720.091	-1.36531
720.286	-27.98891
720.482	37.54609
720.677	37.54609
720.872	-44.37266
721.068	-19.79703
721.263	10.9225
721.458	17.06641
721.654	-13.65313
721.849	-7.50922
722.044	-1.36531
722.24	6.82656
722.435	-25.94094
722.63	55.97781
722.826	25.25828
723.021	60.07375
723.216	21.16234
723.411	-9.55719
723.606	4.77859
723.802	-7.50922
723.997	-13.65313
724.192	19.11437
724.387	4.77859
724.582	15.01844
724.777	23.21031
724.973	49.83391
725.168	0.68266
725.363	-19.79703
725.558	-19.79703
725.753	39.59406
725.948	74.40953
726.143	98.98516
726.338	-3.41328
726.533	21.16234
726.728	-56.66047
726.923	15.01844
727.118	68.26562
727.313	-60.75641
727.508	-9.55719
727.703	39.59406
727.897	58.02578
728.092	-77.14016
728.287	-17.74906
728.482	-11.60516
728.677	41.64203
728.872	41.64203
729.067	0.68266
729.261	-3.41328
729.456	27.30625
729.651	-5.46125
729.846	53.92984
730.04	-48.46859
730.235	15.01844
730.43	31.40219
730.625	-1.36531
730.819	-40.27672
731.014	55.97781
731.209	-15.70109
731.403	-30.03688
731.598	-25.94094
731.793	4.77859
731.987	-19.79703
732.182	-5.46125
732.376	-7.50922
732.571	-9.55719
732.765	-11.60516
732.96	-7.50922
733.155	-11.60516
733.349	41.64203
733.544	6.82656
733.738	60.07375
733.932	6.82656
734.127	58.02578
734.321	-23.89297
734.516	15.01844
734.71	0.68266
734.905	-1.36531
735.099	-36.18078
735.293	4.77859
735.488	-15.70109
735.682	-34.13281
735.876	-3.41328
736.071	51.88188
736.265	-3.41328
736.459	12.97047
736.654	8.87453
736.848	35.49812
737.042	-23.89297
737.236	35.49812
737.431	25.25828
737.625	-42.32469
737.819	8.87453
738.013	2.73062
738.207	53.92984
738.401	8.87453
738.596	8.87453
738.79	-7.50922
738.984	27.30625
739.178	12.97047
739.372	-5.46125
739.566	35.49812
739.76	6.82656
739.954	-3.41328
740.148	23.21031
740.342	49.83391
740.536	12.97047
740.73	17.06641
740.924	17.06641
741.118	-68.94828
741.312	47.78594
741.506	45.73797
741.7	-1.36531
741.894	15.01844
742.087	10.9225
742.281	-15.70109
742.475	17.06641
742.669	-19.79703
742.863	-5.46125
743.057	37.54609
743.25	74.40953
743.444	4.77859
743.638	88.74531
743.832	49.83391
744.025	15.01844
744.219	70.31359
744.413	-70.99625
744.607	74.40953
744.8	25.25828
744.994	-11.60516
745.188	33.45016
745.381	33.45016
745.575	37.54609
745.768	-44.37266
745.962	21.16234
746.156	0.68266
746.349	-38.22875
746.543	8.87453
746.736	60.07375
746.93	-21.845
747.123	41.64203
747.317	10.9225
747.51	4.77859
747.704	-1.36531
747.897	-1.36531
748.091	17.06641
748.284	45.73797
748.478	17.06641
748.671	49.83391
748.864	72.36156
749.058	0.68266
749.251	29.35422
749.444	17.06641
749.638	21.16234
749.831	-27.98891
750.024	0.68266
750.218	-27.98891
750.411	15.01844
750.604	33.45016
750.797	4.77859
750.991	-1.36531
751.184	29.35422
751.377	-19.79703
751.57	-30.03688
751.763	21.16234
751.956	-11.60516
752.15	-34.13281
752.343	12.97047
752.536	-25.94094
752.729	103.08109
752.922	-32.08484
753.115	-46.42062
753.308	62.12172
753.501	49.83391
753.694	-42.32469
753.887	0.68266
754.08	60.07375
754.273	35.49812
754.466	12.97047
754.659	51.88188
754.852	27.30625
755.045	2.73062
755.238	-15.70109
755.431	2.73062
755.624	37.54609
755.817	37.54609
756.009	4.77859
756.202	53.92984
756.395	-27.98891
756.588	-21.845
756.781	10.9225
756.973	45.73797
757.166	-58.70844
757.359	2.73062
757.552	94.88922
757.744	-23.89297
757.937	-23.89297
758.13	35.49812
758.322	53.92984
758.515	31.40219
758.708	39.59406
758.9	68.26562
759.093	-19.79703
759.286	47.78594
759.478	10.9225
759.671	41.64203
759.863	-13.65313
760.056	8.87453
760.248	-15.70109
760.441	68.26562
760.633	72.36156
760.826	-32.08484
761.018	15.01844
761.211	0.68266
761.403	-3.41328
761.596	37.54609
761.788	55.97781
761.981	15.01844
762.173	86.69734
762.365	29.35422
762.558	-3.41328
762.75	43.69
762.942	0.68266
763.135	64.16969
763.327	25.25828
763.519	33.45016
763.712	10.9225
763.904	-21.845
764.096	-5.46125
764.288	-1.36531
764.481	-23.89297
764.673	-11.60516
764.865	-54.6125
765.057	-5.46125
765.249	4.77859
765.441	-38.22875
765.634	33.45016
765.826	-13.65313
766.018	-23.89297
766.21	17.06641
766.402	-27.98891
766.594	37.54609
766.786	4.77859
766.978	0.68266
767.17	-9.55719
767.362	-7.50922
767.554	-7.50922
767.746	82.60141
767.938	-79.18813
768.13	12.97047
768.322	94.88922
768.514	-15.70109
768.706	15.01844
768.898	37.54609
769.089	-17.74906
769.281	25.25828
769.473	-5.46125
769.665	12.97047
769.857	-38.22875
770.049	-11.60516
770.24	10.9225
770.432	-27.98891
770.624	-32.08484
770.816	78.50547
771.007	-50.51656
771.199	-23.89297
771.391	82.60141
771.582	-23.89297
771.774	-32.08484
771.966	8.87453
772.157	29.35422
772.349	27.30625
772.541	-17.74906
772.732	-42.32469
772.924	37.54609
773.115	8.87453
773.307	15.01844
773.498	62.12172
773.69	6.82656
773.881	-32.08484
774.073	6.82656
774.264	17.06641
774.456	60.07375
774.647	68.26562
774.839	-7.50922
775.03	41.64203
775.221	74.40953
775.413	-25.94094
775.604	25.25828
775.796	-30.03688
775.987	86.69734
776.178	21.16234
776.37	33.45016
776.561	41.64203
776.752	-25.94094
776.943	15.01844
777.135	8.87453
777.326	23.21031
777.517	0.68266
777.708	80.55344
777.899	-58.70844
778.091	103.08109
778.282	-19.79703
778.473	60.07375
778.664	2.73062
778.855	62.12172
779.046	-13.65313
779.237	58.02578
779.428	-3.41328
779.62	27.30625
779.811	58.02578
780.002	-3.41328
780.193	4.77859
780.384	6.82656
780.575	0.68266
780.766	17.06641
780.957	-25.94094
781.148	84.64937
781.338	51.88188
781.529	47.78594
781.72	4.77859
781.911	-64.85234
782.102	43.69
782.293	0.68266
782.484	-54.6125
782.674	21.16234
782.865	2.73062
783.056	17.06641
783.247	-21.845
783.438	41.64203
783.628	8.87453
783.819	45.73797
784.01	-11.60516
784.201	-27.98891
784.391	15.01844
784.582	62.12172
784.773	0.68266
784.963	-15.70109
785.154	33.45016
785.344	12.97047
785.535	82.60141
785.726	66.21766
785.916	35.49812
786.107	96.93719
786.297	-60.75641
786.488	-19.79703
786.678	17.06641
786.869	35.49812
787.059	-89.42797
787.25	-19.79703
787.44	72.36156
787.631	62.12172
787.821	70.31359
788.012	51.88188
788.202	-21.845
788.392	41.64203
788.583	-11.60516
788.773	111.27297
788.963	-7.50922
789.154	47.78594
789.344	4.77859
789.534	12.97047
789.724	58.02578
789.915	-25.94094
790.105	25.25828
790.295	43.69
790.485	49.83391
790.676	74.40953
790.866	-68.94828
791.056	2.73062
791.246	70.31359
791.436	39.59406
791.626	31.40219
791.816	58.02578
792.007	23.21031
792.197	58.02578
792.387	-27.98891
792.577	-19.79703
792.767	96.93719
792.957	-25.94094
793.147	-48.46859
793.337	43.69
793.527	68.26562
793.717	41.64203
793.907	0.68266
794.097	76.4575
794.287	33.45016
794.476	33.45016
794.666	23.21031
794.856	23.21031
795.046	-7.50922
795.236	51.88188
795.426	37.54609
795.615	39.59406
795.805	29.35422
795.995	58.02578
796.185	0.68266
796.375	-21.845
796.564	-48.46859
796.754	-9.55719
796.944	74.40953
797.133	45.73797
797.323	33.45016
797.513	0.68266
797.702	-9.55719
797.892	70.31359
798.082	-17.74906
798.271	12.97047
798.461	39.59406
798.65	-40.27672
798.84	33.45016
799.029	2.73062
799.219	55.97781
799.408	51.88188
799.598	62.12172
799.787	-15.70109
799.977	41.64203
800.166	-27.98891
800.356	-58.70844
800.545	8.87453
800.735	4.77859
800.924	66.21766
801.113	-25.94094
801.303	43.69
801.492	31.40219
801.681	68.26562
801.871	-11.60516
802.06	-52.56453
802.249	-3.41328
802.438	25.25828
802.628	-42.32469
802.817	23.21031
803.006	53.92984
803.195	82.60141
803.385	21.16234
803.574	25.25828
803.763	74.40953
803.952	17.06641
804.141	-13.65313
804.33	17.06641
804.519	12.97047
804.708	4.77859
804.897	39.59406
805.087	41.64203
805.276	-15.70109
805.465	12.97047
805.654	-25.94094
805.843	58.02578
806.032	-36.18078
806.22	6.82656
806.409	41.64203
806.598	-5.46125
806.787	10.9225
806.976	82.60141
807.165	-1.36531
807.354	66.21766
807.543	-44.37266
807.732	27.30625
807.92	-15.70109
808.109	10.9225
808.298	10.9225
808.487	92.84125
808.676	-5.46125
808.864	-19.79703
809.053	-13.65313
809.242	-23.89297
809.43	-5.46125
809.619	37.54609
809.808	0.68266
809.996	60.07375
810.185	4.77859
810.374	6.82656
810.562	10.9225
810.751	31.40219
810.939	-19.79703
811.128	15.01844
811.317	-17.74906
811.505	4.77859
811.694	-38.22875
811.882	8.87453
812.071	-30.03688
812.259	25.25828
812.448	-75.09219
812.636	45.73797
812.824	-50.51656
813.013	37.54609
813.201	41.64203
813.39	33.45016
813.578	6.82656
813.766	66.21766
813.955	17.06641
814.143	-3.41328
814.331	17.06641
814.519	17.06641
814.708	35.49812
814.896	-5.46125
815.084	35.49812
815.272	55.97781
815.461	35.49812
815.649	-27.98891
815.837	-48.46859
816.025	15.01844
816.213	-46.42062
816.401	-1.36531
816.59	6.82656
816.778	43.69
816.966	-15.70109
817.154	-7.50922
817.342	-15.70109
817.53	17.06641
817.718	82.60141
817.906	-40.27672
818.094	31.40219
818.282	60.07375
818.47	8.87453
818.658	6.82656
818.846	-38.22875
819.034	35.49812
819.222	58.02578
819.409	25.25828
819.597	0.68266
819.785	60.07375
819.973	-17.74906
820.161	98.98516
820.349	25.25828
820.536	0.68266
820.724	-36.18078
820.912	-46.42062
821.1	62.12172
821.287	51.88188
821.475	-52.56453
821.663	-3.41328
821.85	70.31359
822.038	43.69
822.226	-44.37266
822.413	-19.79703
822.601	-11.60516
822.789	12.97047
822.976	-1.36531
823.164	23.21031
823.351	-7.50922
823.539	0.68266
823.726	53.92984
823.914	43.69
824.101	10.9225
824.289	-19.79703
824.476	43.69
824.664	2.73062
824.851	8.87453
825.039	25.25828
825.226	45.73797
825.413	43.69
825.601	-30.03688
825.788	70.31359
825.976	60.07375
826.163	119.46484
826.35	-17.74906
826.537	27.30625
826.725	39.59406
826.912	4.77859
827.099	-40.27672
827.286	0.68266
827.474	12.97047
827.661	51.88188
827.848	-64.85234
828.035	41.64203
828.222	17.06641
828.409	60.07375
828.597	2.73062
828.784	51.88188
828.971	62.12172
829.158	29.35422
829.345	4.77859
829.532	62.12172
829.719	-17.74906
829.906	37.54609
830.093	-17.74906
830.28	17.06641
830.467	-15.70109
830.654	-34.13281
830.841	0.68266
831.028	55.97781
831.215	23.21031
831.402	-5.46125
831.588	33.45016
831.775	10.9225
831.962	-13.65313
832.149	17.06641
832.336	15.01844
832.522	-9.55719
832.709	0.68266
832.896	12.97047
833.083	6.82656
833.269	35.49812
833.456	6.82656
833.643	25.25828
833.83	33.45016
834.016	43.69
834.203	21.16234
834.39	58.02578
834.576	37.54609
834.763	35.49812
834.949	17.06641
835.136	31.40219
835.322	-36.18078
835.509	64.16969
835.695	41.64203
835.882	53.92984
836.068	31.40219
836.255	17.06641
836.441	-15.70109
836.628	74.40953
836.814	17.06641
837.001	-32.08484
837.187	23.21031
837.373	53.92984
837.56	23.21031
837.746	6.82656
837.933	27.30625
838.119	31.40219
838.305	39.59406
838.491	-15.70109
838.678	58.02578
838.864	41.64203
839.05	-27.98891
839.236	94.88922
839.423	15.01844
839.609	21.16234
839.795	37.54609
839.981	-44.37266
840.167	29.35422
840.353	-44.37266
840.54	45.73797
840.726	27.30625
840.912	-17.74906
841.098	-27.98891
841.284	60.07375
841.47	41.64203
841.656	0.68266
841.842	-36.18078
842.028	39.59406
842.214	0.68266
842.4	12.97047
842.586	-42.32469
842.772	25.25828
842.958	-17.74906
843.143	-42.32469
843.329	2.73062
843.515	0.68266
843.701	58.02578
843.887	-36.18078
844.073	-23.89297
844.258	51.88188
844.444	66.21766
844.63	6.82656
844.816	53.92984
845.001	-52.56453
845.187	15.01844
845.373	-5.46125
845.559	25.25828
845.744	0.68266
845.93	39.59406
846.115	-36.18078
846.301	6.82656
846.487	-27.98891
846.672	-21.845
846.858	-77.14016
847.043	-5.46125
847.229	37.54609
847.414	-42.32469
847.6	-1.36531
847.785	4.77859
847.971	-40.27672
848.156	25.25828
848.342	39.59406
848.527	-25.94094
848.713	-23.89297
848.898	17.06641
849.083	33.45016
849.269	37.54609
849.454	125.60875
849.639	2.73062
849.825	-32.08484
850.01	103.08109
850.195	19.11437
850.381	-40.27672
850.566	53.92984
850.751	-7.50922
850.936	0.68266
851.122	41.64203
851.307	12.97047
851.492	25.25828
851.677	27.30625
851.862	37.54609
852.047	-15.70109
852.232	49.83391
852.417	-34.13281
852.603	-40.27672
852.788	41.64203
852.973	-11.60516
853.158	78.50547
853.343	29.35422
853.528	2.73062
853.713	-13.65313
853.898	-15.70109
854.083	-9.55719
854.267	53.92984
854.452	37.54609
854.637	-3.41328
854.822	35.49812
855.007	-15.70109
855.192	60.07375
855.377	37.54609
855.562	-25.94094
855.746	12.97047
855.931	47.78594
856.116	45.73797
856.301	17.06641
856.485	66.21766
856.67	55.97781
856.855	-21.845
857.039	98.98516
857.224	41.64203
857.409	80.55344
857.593	-68.94828
857.778	31.40219
857.963	-3.41328
858.147	-44.37266
858.332	-17.74906
858.516	58.02578
858.701	74.40953
858.885	33.45016
859.07	4.77859
859.254	66.21766
859.439	55.97781
859.623	60.07375
859.808	21.16234
859.992	17.06641
860.177	43.69
860.361	-23.89297
860.545	-11.60516
860.73	68.26562
860.914	64.16969
861.098	-62.80437
861.283	-44.37266
861.467	35.49812
861.651	21.16234
861.836	-30.03688
862.02	-7.50922
862.204	-21.845
862.388	21.16234
862.572	62.12172
862.757	45.73797
862.941	76.4575
863.125	4.77859
863.309	0.68266
863.493	78.50547
863.677	60.07375
863.861	37.54609
864.045	53.92984
864.23	-27.98891
864.414	-9.55719
864.598	47.78594
864.782	-11.60516
864.966	33.45016
865.15	21.16234
865.334	-9.55719
865.517	17.06641
865.701	45.73797
865.885	51.88188
866.069	-38.22875
866.253	49.83391
866.437	23.21031
866.621	68.26562
866.805	60.07375
866.988	60.07375
867.172	2.73062
867.356	-30.03688
867.54	-9.55719
867.723	0.68266
867.907	-17.74906
868.091	-15.70109
868.275	-25.94094
868.458	68.26562
868.642	27.30625
868.826	12.97047
869.009	-9.55719
869.193	10.9225
869.376	-13.65313
869.56	39.59406
869.744	45.73797
869.927	17.06641
870.111	-11.60516
870.294	-34.13281
870.478	12.97047
870.661	-27.98891
870.845	51.88188
871.028	19.11437
871.211	55.97781
871.395	66.21766
871.578	-19.79703
871.762	53.92984
871.945	47.78594
872.128	33.45016
872.312	43.69
872.495	80.55344
872.678	64.16969
872.862	92.84125
873.045	25.25828
873.228	62.12172
873.411	12.97047
873.595	17.06641
873.778	21.16234
873.961	21.16234
874.144	-27.98891
874.327	25.25828
874.51	-36.18078
874.694	51.88188
874.877	43.69
875.06	23.21031
875.243	47.78594
875.426	37.54609
875.609	21.16234
875.792	74.40953
875.975	41.64203
876.158	-25.94094
876.341	37.54609
876.524	55.97781
876.707	-7.50922
876.89	-5.46125
877.073	39.59406
877.255	80.55344
877.438	-1.36531
877.621	76.4575
877.804	-15.70109
877.987	33.45016
878.17	-15.70109
878.352	27.30625
878.535	-3.41328
878.718	37.54609
878.901	76.4575
879.083	55.97781
879.266	27.30625
879.449	29.35422
879.631	21.16234
879.814	49.83391
879.997	37.54609
880.179	47.78594
880.362	15.01844
880.545	43.69
880.727	0.68266
880.91	39.59406
881.092	-11.60516
881.275	92.84125
881.457	74.40953
881.64	31.40219
881.822	10.9225
882.005	-7.50922
882.187	64.16969
882.37	60.07375
882.552	-56.66047
882.734	66.21766
882.917	-1.36531
883.099	21.16234
883.281	-60.75641
883.464	-3.41328
883.646	-23.89297
883.828	74.40953
884.011	-5.46125
884.193	2.73062
884.375	4.77859
884.557	137.89656
884.74	66.21766
884.922	21.16234
885.104	21.16234
885.286	25.25828
885.468	-17.74906
885.65	45.73797
885.832	23.21031
886.015	-7.50922
886.197	39.59406
886.379	25.25828
886.561	29.35422
886.743	51.88188
886.925	33.45016
887.107	-7.50922
887.289	4.77859
887.471	17.06641
887.653	-30.03688
887.835	15.01844
888.016	2.73062
888.198	-9.55719
888.38	-21.845
888.562	49.83391
888.744	96.93719
888.926	47.78594
889.108	0.68266
889.289	17.06641
889.471	-5.46125
889.653	-30.03688
889.835	-19.79703
890.016	45.73797
890.198	39.59406
890.38	58.02578
890.561	64.16969
890.743	-1.36531
890.925	-36.18078
891.106	-11.60516
891.288	-38.22875
891.469	-34.13281
891.651	70.31359
891.833	37.54609
892.014	119.46484
892.196	2.73062
892.377	-32.08484
892.559	27.30625
892.74	43.69
892.922	23.21031
893.103	10.9225
893.284	53.92984
893.466	10.9225
893.647	2.73062
893.829	21.16234
894.01	21.16234
894.191	-5.46125
894.373	8.87453
894.554	-5.46125
894.735	-5.46125
894.916	70.31359
895.098	12.97047
895.279	-48.46859
895.46	-9.55719
895.641	49.83391
895.823	4.77859
896.004	-1.36531
896.185	49.83391
896.366	-19.79703
896.547	27.30625
896.728	4.77859
896.909	27.30625
897.09	37.54609
897.271	4.77859
897.452	21.16234
897.633	49.83391
897.814	-66.90031
897.995	19.11437
898.176	-36.18078
898.357	-60.75641
898.538	-17.74906
898.719	58.02578
898.9	-40.27672
899.081	-27.98891
899.262	17.06641
899.443	-85.33203
899.623	74.40953
899.804	58.02578
899.985	2.73062
900.166	35.49812
900.347	37.54609
900.527	-1.36531
900.708	53.92984
900.889	21.16234
901.07	4.77859
901.25	27.30625
901.431	-13.65313
901.611	-30.03688
901.792	41.64203
901.973	66.21766
902.153	33.45016
902.334	-21.845
902.514	-1.36531
902.695	8.87453
902.876	-9.55719
903.056	12.97047
903.237	23.21031
903.417	4.77859
903.597	23.21031
903.778	78.50547
903.958	31.40219
904.139	-56.66047
904.319	37.54609
904.499	0.68266
904.68	70.31359
904.86	0.68266
905.04	19.11437
905.221	51.88188
905.401	-79.18813
905.581	-7.50922
905.762	-27.98891
905.942	39.59406
906.122	49.83391
906.302	-25.94094
906.482	4.77859
906.663	27.30625
906.843	-7.50922
907.023	-9.55719
907.203	37.54609
907.383	60.07375
907.563	-38.22875
907.743	43.69
907.923	-13.65313
908.103	41.64203
908.283	-1.36531
908.463	33.45016
908.643	-13.65313
908.823	-17.74906
909.003	51.88188
909.183	17.06641
909.363	-46.42062
909.543	-15.70109
909.723	0.68266
909.903	17.06641
910.082	33.45016
910.262	76.4575
910.442	-50.51656
910.622	109.225
910.802	-48.46859
910.981	37.54609
911.161	43.69
911.341	4.77859
911.521	12.97047
911.7	2.73062
911.88	19.11437
912.06	6.82656
912.239	2.73062
912.419	-9.55719
912.598	4.77859
912.778	19.11437
912.958	0.68266
913.137	-40.27672
913.317	80.55344
913.496	58.02578
913.676	6.82656
913.855	39.59406
914.035	70.31359
914.214	17.06641
914.393	41.64203
914.573	41.64203
914.752	17.06641
914.932	-50.51656
915.111	-27.98891
915.29	43.69
915.47	15.01844
915.649	8.87453
915.828	23.21031
916.008	53.92984
916.187	12.97047
916.366	23.21031
916.545	27.30625
916.724	-3.41328
916.904	-40.27672
917.083	-11.60516
917.262	-1.36531
917.441	84.64937
917.62	62.12172
917.799	-15.70109
917.978	2.73062
918.158	51.88188
918.337	-7.50922
918.516	86.69734
918.695	-19.79703
918.874	-32.08484
919.053	33.45016
919.232	41.64203
919.41	43.69
919.589	-15.70109
919.768	2.73062
919.947	19.11437
920.126	-5.46125
920.305	-27.98891
920.484	-40.27672
920.663	-7.50922
920.841	-25.94094
921.02	15.01844
921.199	-23.89297
921.378	62.12172
921.556	-25.94094
921.735	33.45016
921.914	-17.74906
922.093	70.31359
922.271	29.35422
922.45	78.50547
922.629	-3.41328
922.807	49.83391
922.986	47.78594
923.164	80.55344
923.343	19.11437
923.521	15.01844
923.7	12.97047
923.878	-32.08484
924.057	31.40219
924.235	-17.74906
924.414	-15.70109
924.592	-9.55719
924.771	-32.08484
924.949	-13.65313
925.128	12.97047
925.306	21.16234
925.484	55.97781
925.663	31.40219
925.841	-34.13281
926.019	-30.03688
926.198	-27.98891
926.376	4.77859
926.554	-7.50922
926.732	-66.90031
926.91	31.40219
927.089	27.30625
927.267	-5.46125
927.445	41.64203
927.623	64.16969
927.801	35.49812
927.979	4.77859
928.158	70.31359
928.336	45.73797
928.514	78.50547
928.692	41.64203
928.87	-40.27672
929.048	53.92984
929.226	12.97047
929.404	86.69734
929.582	53.92984
929.76	-23.89297
929.937	15.01844
930.115	49.83391
930.293	37.54609
930.471	33.45016
930.649	45.73797
930.827	43.69
931.005	-1.36531
931.182	29.35422
931.36	23.21031
931.538	19.11437
931.716	-5.46125
931.893	25.25828
932.071	-7.50922
932.249	6.82656
932.426	51.88188
932.604	45.73797
932.782	35.49812
932.959	6.82656
933.137	66.21766
933.315	37.54609
933.492	0.68266
933.67	8.87453
933.847	45.73797
934.025	49.83391
934.202	-15.70109
934.38	4.77859
934.557	-21.845
934.735	0.68266
934.912	43.69
935.089	0.68266
935.267	37.54609
935.444	53.92984
935.622	86.69734
935.799	-27.98891
935.976	35.49812
936.154	-17.74906
936.331	12.97047
936.508	-17.74906
936.685	-13.65313
936.863	12.97047
937.04	39.59406
937.217	-9.55719
937.394	29.35422
937.571	-9.55719
937.748	37.54609
937.926	6.82656
938.103	19.11437
938.28	-7.50922
938.457	15.01844
938.634	31.40219
938.811	37.54609
938.988	-13.65313
939.165	-7.50922
939.342	-38.22875
939.519	62.12172
939.696	64.16969
939.873	25.25828
940.05	-38.22875
940.227	17.06641
940.404	96.93719
940.58	12.97047
940.757	2.73062
940.934	33.45016
941.111	41.64203
941.288	41.64203
941.464	49.83391
941.641	-9.55719
941.818	-5.46125
941.995	-9.55719
942.171	-44.37266
942.348	58.02578
942.525	27.30625
942.701	-7.50922
942.878	39.59406
943.055	21.16234
943.231	-44.37266
943.408	2.73062
943.584	23.21031
943.761	2.73062
943.937	-7.50922
944.114	-64.85234
944.29	4.77859
944.467	12.97047
944.643	8.87453
944.82	-15.70109
944.996	43.69
945.173	-9.55719
945.349	0.68266
945.525	31.40219
945.702	-36.18078
945.878	6.82656
946.054	29.35422
946.231	2.73062
946.407	84.64937
946.583	12.97047
946.759	-13.65313
946.936	55.97781
947.112	39.59406
947.288	-3.41328
947.464	-23.89297
947.64	0.68266
947.816	-1.36531
947.992	8.87453
948.169	12.97047
948.345	-7.50922
948.521	0.68266
948.697	4.77859
948.873	53.92984
949.049	-48.46859
949.225	25.25828
949.401	53.92984
949.577	-3.41328
949.753	35.49812
949.929	-36.18078
950.104	8.87453
950.28	55.97781
950.456	8.87453
950.632	-7.50922
950.808	-9.55719
950.984	2.73062
951.159	-7.50922
951.335	49.83391
951.511	21.16234
951.687	74.40953
951.862	74.40953
952.038	-5.46125
952.214	127.65672
952.39	6.82656
952.565	84.64937
952.741	45.73797
952.916	-1.36531
953.092	4.77859
953.268	12.97047
953.443	-15.70109
953.619	80.55344
953.794	-30.03688
953.97	70.31359
954.145	-17.74906
954.321	33.45016
954.496	68.26562
954.672	41.64203
954.847	80.55344
955.022	12.97047
955.198	103.08109
955.373	-13.65313
955.548	23.21031
955.724	10.9225
955.899	19.11437
956.074	58.02578
956.25	35.49812
956.425	70.31359
956.6	35.49812
956.775	15.01844
956.951	-5.46125
957.126	0.68266
957.301	-27.98891
957.476	49.83391
957.651	4.77859
957.826	33.45016
958.001	6.82656
958.176	27.30625
958.352	-36.18078
958.527	-44.37266
958.702	47.78594
958.877	15.01844
959.052	29.35422
959.227	6.82656
959.401	0.68266
959.576	17.06641
959.751	-32.08484
959.926	27.30625
960.101	82.60141
960.276	-5.46125
960.451	-9.55719
960.626	10.9225
960.8	-13.65313
960.975	-30.03688
961.15	-5.46125
961.325	0.68266
961.499	21.16234
961.674	37.54609
961.849	37.54609
962.023	25.25828
962.198	-7.50922
962.373	25.25828
962.547	23.21031
962.722	27.30625
962.897	-5.46125
963.071	-17.74906
963.246	-19.79703
963.42	41.64203
963.595	45.73797
963.769	29.35422
963.944	33.45016
964.118	-3.41328
964.293	37.54609
964.467	-27.98891
964.641	-13.65313
964.816	6.82656
964.99	78.50547
965.165	4.77859
965.339	68.26562
965.513	-13.65313
965.687	55.97781
965.862	12.97047
966.036	-15.70109
966.21	-9.55719
966.384	-1.36531
966.559	58.02578
966.733	66.21766
966.907	35.49812
967.081	21.16234
967.255	-7.50922
967.429	-44.37266
967.604	47.78594
967.778	35.49812
967.952	47.78594
968.126	27.30625
968.3	-68.94828
968.474	49.83391
968.648	-19.79703
968.822	45.73797
968.996	25.25828
969.17	-3.41328
969.343	31.40219
969.517	27.30625
969.691	-60.75641
969.865	0.68266
970.039	47.78594
970.213	17.06641
970.387	-36.18078
970.56	-5.46125
970.734	39.59406
970.908	39.59406
971.082	-25.94094
971.255	25.25828
971.429	86.69734
971.603	-15.70109
971.776	60.07375
971.95	62.12172
972.124	27.30625
972.297	-25.94094
972.471	51.88188
972.644	-7.50922
972.818	45.73797
972.991	-13.65313
973.165	84.64937
973.338	-13.65313
973.512	8.87453
973.685	58.02578
973.859	-25.94094
974.032	-3.41328
974.206	2.73062
974.379	-27.98891
974.552	-11.60516
974.726	-9.55719
974.899	17.06641
975.072	25.25828
975.246	60.07375
975.419	15.01844
975.592	-3.41328
975.765	43.69
975.939	-7.50922
976.112	4.77859
976.285	-38.22875
976.458	-70.99625
976.631	19.11437
976.804	72.36156
976.977	78.50547
977.151	10.9225
977.324	-48.46859
977.497	43.69
977.67	29.35422
977.843	23.21031
978.016	33.45016
978.189	4.77859
978.362	70.31359
978.535	-7.50922
978.707	33.45016
978.88	49.83391
979.053	33.45016
979.226	60.07375
979.399	74.40953
979.572	-34.13281
979.745	25.25828
979.917	8.87453
980.09	35.49812
980.263	25.25828
980.436	27.30625
980.608	66.21766
980.781	45.73797
980.954	-38.22875
981.126	23.21031
981.299	-3.41328
981.472	41.64203
981.644	109.225
981.817	-13.65313
981.989	-56.66047
982.162	17.06641
982.335	-38.22875
982.507	-11.60516
982.68	33.45016
982.852	0.68266
983.024	-62.80437
983.197	-9.55719
983.369	-15.70109
983.542	62.12172
983.714	35.49812
983.886	-38.22875
984.059	17.06641
984.231	-15.70109
984.403	-19.79703
984.576	0.68266
984.748	8.87453
984.92	-64.85234
985.093	62.12172
985.265	29.35422
985.437	17.06641
985.609	47.78594
985.781	33.45016
985.953	-23.89297
986.126	15.01844
986.298	58.02578
986.47	78.50547
986.642	-11.60516
986.814	-13.65313
986.986	47.78594
987.158	-1.36531
987.33	21.16234
987.502	31.40219
987.674	51.88188
987.846	-54.6125
988.018	68.26562
988.19	-9.55719
988.361	-17.74906
988.533	-13.65313
988.705	17.06641
988.877	10.9225
989.049	10.9225
989.221	70.31359
989.392	35.49812
989.564	23.21031
989.736	43.69
989.908	53.92984
990.079	-7.50922
990.251	-32.08484
990.423	-3.41328
990.594	60.07375
990.766	6.82656
990.937	-48.46859
991.109	76.4575
991.281	41.64203
991.452	49.83391
991.624	35.49812
991.795	17.06641
991.967	4.77859
992.138	-32.08484
992.31	-58.70844
992.481	-44.37266
992.652	-32.08484
992.824	47.78594
992.995	49.83391
993.167	41.64203
993.338	4.77859
993.509	-38.22875
993.681	-5.46125
993.852	35.49812
994.023	23.21031
994.194	25.25828
994.366	53.92984
994.537	-60.75641
994.708	12.97047
994.879	-13.65313
995.05	41.64203
995.221	64.16969
995.393	64.16969
995.564	27.30625
995.735	17.06641
995.906	23.21031
996.077	-11.60516
996.248	-17.74906
996.419	25.25828
996.59	25.25828
996.761	-3.41328
996.932	31.40219
997.103	-36.18078
997.274	19.11437
997.444	47.78594
997.615	107.17703
997.786	33.45016
997.957	53.92984
998.128	4.77859
998.299	60.07375
998.469	41.64203
998.64	62.12172
998.811	27.30625
998.982	35.49812
999.152	29.35422
999.323	62.12172
999.494	-1.36531
999.664	-19.79703
999.835	47.78594
1000.006	78.50547
1000.176	58.02578
1000.347	74.40953
1000.517	60.07375
1000.688	-27.98891
1000.858	-13.65313
1001.029	45.73797
1001.199	-1.36531
1001.37	-27.98891
1001.54	6.82656
1001.711	-1.36531
1001.881	-58.70844
1002.051	-13.65313
1002.222	-42.32469
1002.392	51.88188
1002.562	31.40219
1002.733	-60.75641
1002.903	8.87453
1003.073	-3.41328
1003.244	29.35422
1003.414	45.73797
1003.584	37.54609
1003.754	70.31359
1003.924	4.77859
1004.094	6.82656
1004.265	-32.08484
1004.435	131.75266
1004.605	6.82656
1004.775	-32.08484
1004.945	64.16969
1005.115	0.68266
1005.285	43.69
1005.455	4.77859
1005.625	35.49812
1005.795	43.69
1005.965	25.25828
1006.135	31.40219
1006.305	10.9225
1006.475	-52.56453
1006.645	51.88188
1006.814	74.40953
1006.984	-9.55719
1007.154	103.08109
1007.324	10.9225
1007.494	-19.79703
1007.663	35.49812
1007.833	12.97047
1008.003	23.21031
1008.172	47.78594
1008.342	25.25828
1008.512	78.50547
1008.681	-27.98891
1008.851	31.40219
1009.021	-64.85234
1009.19	51.88188
1009.36	2.73062
1009.529	41.64203
1009.699	37.54609
1009.868	31.40219
1010.038	53.92984
1010.207	19.11437
1010.377	4.77859
1010.546	60.07375
1010.716	-7.50922
1010.885	82.60141
1011.054	86.69734
1011.224	94.88922
1011.393	43.69
1011.562	33.45016
1011.732	23.21031
1011.901	15.01844
1012.07	15.01844
1012.24	-25.94094
1012.409	72.36156
1012.578	-62.80437
1012.747	33.45016
1012.916	39.59406
1013.085	-1.36531
1013.255	-42.32469
1013.424	66.21766
1013.593	-38.22875
1013.762	-17.74906
1013.931	15.01844
1014.1	43.69
1014.269	15.01844
1014.438	82.60141
1014.607	66.21766
1014.776	31.40219
1014.945	27.30625
1015.114	-27.98891
1015.283	-11.60516
1015.451	80.55344
1015.62	76.4575
1015.789	55.97781
1015.958	58.02578
1016.127	41.64203
1016.296	47.78594
1016.464	35.49812
1016.633	82.60141
1016.802	-19.79703
1016.971	-38.22875
1017.139	-1.36531
1017.308	4.77859
1017.477	17.06641
1017.645	-38.22875
1017.814	58.02578
1017.982	6.82656
1018.151	0.68266
1018.319	-3.41328
1018.488	84.64937
1018.657	33.45016
1018.825	-44.37266
1018.993	68.26562
1019.162	4.77859
1019.33	41.64203
1019.499	43.69
1019.667	39.59406
1019.836	-25.94094
1020.004	-7.50922
1020.172	29.35422
1020.341	51.88188
1020.509	-15.70109
1020.677	4.77859
1020.845	-32.08484
1021.014	37.54609
1021.182	8.87453
1021.35	33.45016
1021.518	6.82656
1021.686	76.4575
1021.855	0.68266
1022.023	4.77859
1022.191	43.69
1022.359	21.16234
1022.527	-1.36531
1022.695	58.02578
1022.863	15.01844
1023.031	17.06641
1023.199	6.82656
1023.367	41.64203
1023.535	-48.46859
1023.703	-5.46125
1023.871	31.40219
1024.039	0.68266
1024.207	-1.36531
1024.375	70.31359
1024.542	-23.89297
1024.71	12.97047
1024.878	23.21031
1025.046	-19.79703
1025.213	21.16234
1025.381	-36.18078
1025.549	31.40219
1025.717	43.69
1025.884	60.07375
1026.052	-3.41328
1026.22	-15.70109
1026.387	76.4575
1026.555	15.01844
1026.722	53.92984
1026.89	-1.36531
1027.058	10.9225
1027.225	74.40953
1027.393	62.12172
1027.56	21.16234
1027.728	39.59406
1027.895	-7.50922
1028.062	31.40219
1028.23	23.21031
1028.397	-9.55719
1028.565	-15.70109
1028.732	111.27297
1028.899	27.30625
1029.067	2.73062
1029.234	-27.98891
1029.401	-13.65313
1029.568	-34.13281
1029.736	74.40953
1029.903	121.51281
1030.07	0.68266
1030.237	-11.60516
1030.404	19.11437
1030.572	-27.98891
1030.739	49.83391
1030.906	115.36891
1031.073	-17.74906
1031.24	23.21031
1031.407	-25.94094
1031.574	62.12172
1031.741	-56.66047
1031.908	25.25828
1032.075	51.88188
1032.242	33.45016
1032.409	23.21031
1032.576	6.82656
1032.743	33.45016
1032.91	64.16969
1033.076	0.68266
1033.243	-13.65313
1033.41	37.54609
1033.577	49.83391
1033.744	0.68266
1033.91	-25.94094
1034.077	-27.98891
1034.244	-56.66047
1034.41	-17.74906
1034.577	-13.65313
1034.744	-3.41328
1034.91	39.59406
1035.077	49.83391
1035.244	0.68266
1035.41	94.88922
1035.577	0.68266
1035.743	17.06641
1035.91	29.35422
1036.076	8.87453
1036.243	-58.70844
1036.409	0.68266
1036.576	25.25828
1036.742	27.30625
1036.908	-1.36531
1037.075	27.30625
1037.241	33.45016
1037.408	25.25828
1037.574	-21.845
1037.74	27.30625
1037.906	43.69
1038.073	-23.89297
1038.239	-46.42062
1038.405	-64.85234
1038.571	-42.32469
1038.738	-11.60516
1038.904	8.87453
1039.07	60.07375
1039.236	66.21766
1039.402	-23.89297
1039.568	58.02578
1039.734	62.12172
1039.9	37.54609
1040.066	41.64203
1040.232	45.73797
1040.398	21.16234
1040.564	-27.98891
1040.73	-15.70109
1040.896	43.69
1041.062	84.64937
1041.228	-42.32469
1041.394	-97.61984
1041.56	-13.65313
1041.725	47.78594
1041.891	15.01844
1042.057	15.01844
1042.223	-7.50922
1042.389	-23.89297
1042.554	-9.55719
1042.72	0.68266
1042.886	-1.36531
1043.051	8.87453
1043.217	29.35422
1043.383	51.88188
1043.548	-32.08484
1043.714	19.11437
1043.879	-27.98891
1044.045	29.35422
1044.21	-3.41328
1044.376	4.77859
1044.541	43.69
1044.707	0.68266
1044.872	37.54609
1045.038	4.77859
1045.203	-44.37266
1045.369	-11.60516
1045.534	39.59406
1045.699	-5.46125
1045.865	39.59406
1046.03	21.16234
1046.195	68.26562
1046.361	53.92984
1046.526	43.69
1046.691	2.73062
1046.856	-19.79703
1047.021	-48.46859
1047.187	37.54609
1047.352	33.45016
1047.517	0.68266
1047.682	31.40219
1047.847	-11.60516
1048.012	-19.79703
1048.177	31.40219
1048.342	-23.89297
1048.507	35.49812
1048.672	29.35422
1048.837	25.25828
1049.002	21.16234
1049.167	29.35422
1049.332	-25.94094
1049.497	33.45016
1049.662	15.01844
1049.827	-34.13281
1049.992	-40.27672
1050.156	17.06641
1050.321	-7.50922
1050.486	-36.18078
1050.651	-23.89297
1050.816	37.54609
1050.98	62.12172
1051.145	27.30625
1051.31	21.16234
1051.474	-7.50922
1051.639	45.73797
1051.804	25.25828
1051.968	-30.03688
1052.133	-3.41328
1052.297	64.16969
1052.462	-36.18078
1052.626	53.92984
1052.791	4.77859
1052.955	45.73797
1053.12	2.73062
1053.284	-46.42062
1053.449	-3.41328
1053.613	-77.14016
1053.777	21.16234
1053.942	66.21766
1054.106	-23.89297
1054.27	60.07375
1054.435	-36.18078
1054.599	-11.60516
1054.763	45.73797
1054.928	72.36156
1055.092	31.40219
1055.256	-34.13281
1055.42	17.06641
1055.584	101.03312
1055.748	-48.46859
1055.913	-21.845
1056.077	-27.98891
1056.241	21.16234
1056.405	76.4575
1056.569	0.68266
1056.733	15.01844
1056.897	66.21766
1057.061	23.21031
1057.225	92.84125
1057.389	-66.90031
1057.553	23.21031
1057.717	-19.79703
1057.88	62.12172
1058.044	-17.74906
1058.208	53.92984
1058.372	8.87453
1058.536	-5.46125
1058.7	10.9225
1058.863	10.9225
1059.027	23.21031
1059.191	-30.03688
1059.355	43.69
1059.518	82.60141
1059.682	23.21031
1059.846	2.73062
1060.009	29.35422
1060.173	15.01844
1060.336	-66.90031
1060.5	21.16234
1060.663	-13.65313
1060.827	27.30625
1060.99	4.77859
1061.154	10.9225
1061.317	-44.37266
1061.481	25.25828
1061.644	17.06641
1061.808	8.87453
1061.971	64.16969
1062.134	68.26562
1062.298	10.9225
1062.461	-42.32469
1062.624	-73.04422
1062.788	-3.41328
1062.951	-17.74906
1063.114	35.49812
1063.277	-46.42062
1063.441	29.35422
1063.604	35.49812
1063.767	10.9225
1063.93	53.92984
1064.093	6.82656
1064.256	-13.65313
1064.419	-11.60516
1064.582	-15.70109
1064.745	21.16234
1064.908	21.16234
1065.071	-42.32469
1065.234	-5.46125
1065.397	-11.60516
1065.56	-32.08484
1065.723	27.30625
1065.886	-52.56453
1066.049	78.50547
1066.212	-56.66047
1066.375	39.59406
1066.537	10.9225
1066.7	4.77859
1066.863	29.35422
1067.026	8.87453
1067.189	-36.18078
1067.351	2.73062
1067.514	21.16234
1067.677	12.97047
1067.839	-50.51656
1068.002	58.02578
1068.165	-19.79703
1068.327	74.40953
1068.49	82.60141
1068.652	78.50547
1068.815	-56.66047
1068.977	21.16234
1069.14	-15.70109
1069.302	8.87453
1069.465	31.40219
1069.627	39.59406
1069.79	-38.22875
1069.952	47.78594
1070.114	17.06641
1070.277	17.06641
1070.439	45.73797
1070.601	-15.70109
1070.764	64.16969
1070.926	80.55344
1071.088	0.68266
1071.25	-11.60516
1071.413	39.59406
1071.575	33.45016
1071.737	-7.50922
1071.899	-13.65313
1072.061	6.82656
1072.223	15.01844
1072.385	-34.13281
1072.547	0.68266
1072.71	58.02578
1072.872	31.40219
1073.034	-7.50922
1073.196	-38.22875
1073.358	49.83391
1073.519	80.55344
1073.681	12.97047
1073.843	17.06641
1074.005	25.25828
1074.167	4.77859
1074.329	76.4575
1074.491	10.9225
1074.652	-27.98891
1074.814	39.59406
1074.976	21.16234
1075.138	58.02578
1075.299	29.35422
1075.461	60.07375
1075.623	19.11437
1075.785	-27.98891
1075.946	41.64203
1076.108	8.87453
1076.269	-60.75641
1076.431	2.73062
1076.593	6.82656
1076.754	-27.98891
1076.916	62.12172
1077.077	76.4575
1077.239	21.16234
1077.4	-21.845
1077.561	49.83391
1077.723	21.16234
1077.884	-30.03688
1078.046	29.35422
1078.207	15.01844
1078.368	-15.70109
1078.53	-17.74906
1078.691	70.31359
1078.852	45.73797
1079.013	39.59406
1079.175	-23.89297
1079.336	74.40953
1079.497	41.64203
1079.658	-17.74906
1079.819	6.82656
1079.981	33.45016
1080.142	-52.56453
1080.303	47.78594
1080.464	29.35422
1080.625	66.21766
1080.786	21.16234
1080.947	29.35422
1081.108	74.40953
1081.269	41.64203
1081.43	58.02578
1081.591	27.30625
1081.752	-27.98891
1081.912	-46.42062
1082.073	55.97781
1082.234	-3.41328
1082.395	-15.70109
1082.556	-15.70109
1082.717	27.30625
1082.877	-42.32469
1083.038	70.31359
1083.199	60.07375
1083.359	-1.36531
1083.52	39.59406
1083.681	41.64203
1083.841	-48.46859
1084.002	0.68266
1084.163	4.77859
1084.323	0.68266
1084.484	64.16969
1084.644	21.16234
1084.805	35.49812
1084.965	15.01844
1085.126	-11.60516
1085.286	-1.36531
1085.447	21.16234
1085.607	47.78594
1085.767	0.68266
1085.928	8.87453
1086.088	17.06641
1086.249	29.35422
1086.409	10.9225
1086.569	47.78594
1086.729	-9.55719
1086.89	2.73062
1087.05	-32.08484
1087.21	-21.845
1087.37	-15.70109
1087.53	23.21031
1087.691	25.25828
1087.851	-13.65313
1088.011	17.06641
1088.171	94.88922
1088.331	0.68266
1088.491	-42.32469
1088.651	23.21031
1088.811	0.68266
1088.971	-34.13281
1089.131	-38.22875
1089.291	-25.94094
1089.451	74.40953
1089.611	-46.42062
1089.771	4.77859
1089.93	35.49812
1090.09	-21.845
1090.25	12.97047
1090.41	-3.41328
1090.57	60.07375
1090.729	35.49812
1090.889	-3.41328
1091.049	35.49812
1091.208	47.78594
1091.368	-3.41328
1091.528	37.54609
1091.687	51.88188
1091.847	-17.74906
1092.007	51.88188
1092.166	21.16234
1092.326	-21.845
1092.485	82.60141
1092.645	-25.94094
1092.804	17.06641
1092.964	15.01844
1093.123	21.16234
1093.282	43.69
1093.442	29.35422
1093.601	8.87453
1093.761	41.64203
1093.92	15.01844
1094.079	25.25828
1094.239	15.01844
1094.398	80.55344
1094.557	23.21031
1094.716	41.64203
1094.876	10.9225
1095.035	-46.42062
1095.194	8.87453
1095.353	55.97781
1095.512	-13.65313
1095.671	31.40219
1095.83	8.87453
1095.989	21.16234
1096.148	-17.74906
1096.307	2.73062
1096.466	4.77859
1096.625	58.02578
1096.784	25.25828
1096.943	-36.18078
1097.102	31.40219
1097.261	10.9225
1097.42	2.73062
1097.579	-5.46125
1097.738	31.40219
1097.897	33.45016
1098.055	31.40219
1098.214	51.88188
1098.373	58.02578
1098.532	8.87453
1098.69	15.01844
1098.849	-30.03688
1099.008	-62.80437
1099.166	-19.79703
1099.325	21.16234
1099.484	33.45016
1099.642	21.16234
1099.801	4.77859
1099.959	70.31359
1100.118	8.87453
1100.276	21.16234
1100.435	-19.79703
1100.593	-40.27672
1100.752	29.35422
1100.91	17.06641
1101.068	98.98516
1101.227	21.16234
1101.385	33.45016
1101.544	37.54609
1101.702	-13.65313
1101.86	8.87453
1102.018	-48.46859
1102.177	72.36156
1102.335	-11.60516
1102.493	31.40219
1102.651	45.73797
1102.809	47.78594
1102.968	-5.46125
1103.126	0.68266
1103.284	66.21766
1103.442	-54.6125
1103.6	41.64203
1103.758	49.83391
1103.916	-56.66047
1104.074	-13.65313
1104.232	101.03312
1104.39	33.45016
1104.548	21.16234
1104.706	58.02578
1104.864	-19.79703
1105.022	76.4575
1105.179	55.97781
1105.337	15.01844
1105.495	0.68266
1105.653	66.21766
1105.811	0.68266
1105.968	33.45016
1106.126	60.07375
1106.284	51.88188
1106.441	55.97781
1106.599	2.73062
1106.757	23.21031
1106.914	33.45016
1107.072	-5.46125
1107.23	2.73062
1107.387	76.4575
1107.545	-1.36531
1107.702	27.30625
1107.86	-15.70109
1108.017	49.83391
1108.175	70.31359
1108.332	33.45016
1108.489	-15.70109
1108.647	-50.51656
1108.804	0.68266
1108.962	66.21766
1109.119	76.4575
1109.276	55.97781
1109.433	-21.845
1109.591	31.40219
1109.748	21.16234
1109.905	-7.50922
1110.062	-13.65313
1110.22	-25.94094
1110.377	-40.27672
1110.534	27.30625
1110.691	84.64937
1110.848	60.07375
1111.005	-23.89297
1111.162	70.31359
1111.319	41.64203
1111.476	37.54609
1111.633	37.54609
1111.79	17.06641
1111.947	76.4575
1112.104	35.49812
1112.261	10.9225
1112.418	-5.46125
1112.575	94.88922
1112.732	2.73062
1112.888	-27.98891
1113.045	64.16969
1113.202	35.49812
1113.359	0.68266
1113.515	92.84125
1113.672	49.83391
1113.829	64.16969
1113.985	51.88188
1114.142	33.45016
1114.299	12.97047
1114.455	6.82656
1114.612	-40.27672
1114.769	23.21031
1114.925	2.73062
1115.082	37.54609
1115.238	39.59406
1115.395	23.21031
1115.551	-7.50922
1115.707	-19.79703
1115.864	35.49812
1116.02	41.64203
1116.177	12.97047
1116.333	-1.36531
1116.489	6.82656
1116.646	-3.41328
1116.802	62.12172
1116.958	6.82656
1117.114	-9.55719
1117.271	-58.70844
1117.427	60.07375
1117.583	-3.41328
1117.739	-30.03688
1117.895	39.59406
1118.051	60.07375
1118.208	-15.70109
1118.364	2.73062
1118.52	-27.98891
1118.676	33.45016
1118.832	6.82656
1118.988	10.9225
1119.144	8.87453
1119.3	-13.65313
1119.456	-38.22875
1119.611	-30.03688
1119.767	0.68266
1119.923	-5.46125
1120.079	8.87453
1120.235	84.64937
1120.391	35.49812
1120.546	21.16234
1120.702	55.97781
1120.858	0.68266
1121.014	55.97781
1121.169	35.49812
1121.325	-19.79703
1121.481	-60.75641
1121.636	-64.85234
1121.792	58.02578
1121.947	-11.60516
1122.103	23.21031
1122.259	25.25828
1122.414	51.88188
1122.57	47.78594
1122.725	45.73797
1122.881	31.40219
1123.036	51.88188
1123.191	41.64203
1123.347	27.30625
1123.502	-40.27672
1123.657	33.45016
1123.813	113.32094
1123.968	49.83391
1124.123	45.73797
1124.279	39.59406
1124.434	19.11437
1124.589	45.73797
1124.744	33.45016
1124.9	43.69
1125.055	-11.60516
1125.21	43.69
1125.365	2.73062
1125.52	10.9225
1125.675	84.64937
1125.83	37.54609
1125.985	-32.08484
1126.14	-7.50922
1126.295	-3.41328
1126.45	2.73062
1126.605	35.49812
