Data from backuniphase1023p_USB4C031521__3__12-07-31-183.txt Node

Date: Wed May 06 12:07:31 CEST 2026
User: FIDOPA_3
Spectrometer: USB4C03152
Scans to average: 1
Trigger mode: 4
Integration Time (sec): 1.000000E-5
Electric dark correction enabled: true
Boxcar width: 0
XAxis mode: Wavelengths
Number of Pixels in Spectrum: 3648
>>>>>Begin Spectral Data<<<<<
445.929	25.08762
446.14	25.08762
446.351	25.08762
446.562	35.32746
446.773	-17.91973
446.984	47.61527
447.194	-17.91973
447.405	-56.83113
447.616	63.99902
447.827	53.75918
448.038	41.47137
448.249	8.70387
448.459	-95.74254
448.67	45.5673
448.881	-9.72785
449.092	-17.91973
449.303	-62.97504
449.513	-28.15957
449.724	-34.30348
449.935	41.47137
450.146	-5.63191
450.356	39.4234
450.567	-22.01566
450.778	2.55996
450.988	-58.8791
451.199	-40.44738
451.41	-5.63191
451.62	-48.63926
451.831	76.28684
452.042	31.23152
452.252	-13.82379
452.463	-5.63191
452.674	-30.20754
452.884	-30.20754
453.095	2.55996
453.305	-11.77582
453.516	-5.63191
453.727	18.94371
453.937	-46.59129
454.148	0.51199
454.358	-19.9677
454.569	18.94371
454.779	-5.63191
454.99	-44.54332
455.2	27.13559
455.411	82.43074
455.621	-15.87176
455.832	-15.87176
456.042	8.70387
456.253	-81.40676
456.463	-28.15957
456.674	16.89574
456.884	16.89574
457.095	47.61527
457.305	-11.77582
457.515	31.23152
457.726	45.5673
457.936	-48.63926
458.147	-19.9677
458.357	-22.01566
458.567	-17.91973
458.778	25.08762
458.988	-50.68723
459.198	0.51199
459.409	-19.9677
459.619	6.6559
459.829	4.60793
460.039	-50.68723
460.25	8.70387
460.46	-13.82379
460.67	-15.87176
460.881	53.75918
461.091	-73.21488
461.301	29.18355
461.511	-52.7352
461.721	-5.63191
461.932	59.90309
462.142	-19.9677
462.352	12.7998
462.562	37.37543
462.772	-24.06363
462.983	-54.78316
463.193	10.75184
463.403	-11.77582
463.613	-5.63191
463.823	-13.82379
464.033	-38.39941
464.243	-1.53598
464.453	18.94371
464.664	33.27949
464.874	-62.97504
465.084	8.70387
465.294	0.51199
465.504	-81.40676
465.714	27.13559
465.924	-54.78316
466.134	25.08762
466.344	98.81449
466.554	57.85512
466.764	-24.06363
466.974	45.5673
467.184	-7.67988
467.394	-11.77582
467.604	-65.02301
467.814	0.51199
468.024	14.84777
468.233	-62.97504
468.443	0.51199
468.653	-28.15957
468.863	-19.9677
469.073	18.94371
469.283	45.5673
469.493	6.6559
469.703	2.55996
469.912	72.1909
470.122	14.84777
470.332	39.4234
470.542	4.60793
470.752	4.60793
470.962	35.32746
471.171	-15.87176
471.381	-26.1116
471.591	-44.54332
471.801	-3.58395
472.01	18.94371
472.22	-54.78316
472.43	23.03965
472.64	-71.16691
472.849	-56.83113
473.059	29.18355
473.269	-38.39941
473.478	-60.92707
473.688	27.13559
473.898	-40.44738
474.107	-28.15957
474.317	33.27949
474.527	8.70387
474.736	-32.25551
474.946	-56.83113
475.155	-11.77582
475.365	-30.20754
475.575	25.08762
475.784	-24.06363
475.994	-65.02301
476.203	39.4234
476.413	-26.1116
476.622	18.94371
476.832	-67.07098
477.041	-15.87176
477.251	82.43074
477.46	-38.39941
477.67	-17.91973
477.879	0.51199
478.089	16.89574
478.298	-1.53598
478.508	-17.91973
478.717	27.13559
478.927	-9.72785
479.136	57.85512
479.345	-40.44738
479.555	-5.63191
479.764	-44.54332
479.974	-46.59129
480.183	18.94371
480.392	-32.25551
480.602	20.99168
480.811	-40.44738
481.02	-44.54332
481.23	4.60793
481.439	12.7998
481.648	45.5673
481.858	18.94371
482.067	55.80715
482.276	-1.53598
482.485	0.51199
482.695	-9.72785
482.904	-13.82379
483.113	-42.49535
483.322	27.13559
483.532	72.1909
483.741	-44.54332
483.95	8.70387
484.159	-32.25551
484.368	-56.83113
484.577	-19.9677
484.787	4.60793
484.996	-26.1116
485.205	-11.77582
485.414	27.13559
485.623	-15.87176
485.832	-40.44738
486.041	-32.25551
486.25	-19.9677
486.459	4.60793
486.669	-28.15957
486.878	4.60793
487.087	-81.40676
487.296	-15.87176
487.505	-28.15957
487.714	2.55996
487.923	27.13559
488.132	-26.1116
488.341	-3.58395
488.55	-26.1116
488.759	-13.82379
488.968	-19.9677
489.177	20.99168
489.385	0.51199
489.594	12.7998
489.803	49.66324
490.012	-11.77582
490.221	27.13559
490.43	-118.2702
490.639	-42.49535
490.848	-3.58395
491.057	-3.58395
491.265	16.89574
491.474	-46.59129
491.683	27.13559
491.892	18.94371
492.101	-3.58395
492.31	-50.68723
492.518	6.6559
492.727	27.13559
492.936	-17.91973
493.145	41.47137
493.353	51.71121
493.562	-101.88645
493.771	-75.26285
493.98	-19.9677
494.188	10.75184
494.397	47.61527
494.606	33.27949
494.814	-36.35145
495.023	8.70387
495.232	-30.20754
495.44	0.51199
495.649	-13.82379
495.858	-24.06363
496.066	-30.20754
496.275	-24.06363
496.483	-54.78316
496.692	-24.06363
496.901	-36.35145
497.109	2.55996
497.318	-69.11895
497.526	-1.53598
497.735	23.03965
497.943	-54.78316
498.152	0.51199
498.36	18.94371
498.569	18.94371
498.777	-38.39941
498.986	12.7998
499.194	37.37543
499.403	-36.35145
499.611	39.4234
499.82	-3.58395
500.028	-3.58395
500.236	-58.8791
500.445	57.85512
500.653	-22.01566
500.862	-17.91973
501.07	-5.63191
501.278	-50.68723
501.487	20.99168
501.695	-5.63191
501.903	8.70387
502.112	4.60793
502.32	-19.9677
502.528	-48.63926
502.737	-11.77582
502.945	12.7998
503.153	14.84777
503.361	-19.9677
503.57	-7.67988
503.778	-3.58395
503.986	-46.59129
504.194	-34.30348
504.403	-36.35145
504.611	6.6559
504.819	-36.35145
505.027	16.89574
505.235	-54.78316
505.443	-3.58395
505.652	-15.87176
505.86	-32.25551
506.068	-7.67988
506.276	-32.25551
506.484	-105.98238
506.692	31.23152
506.9	-40.44738
507.108	-32.25551
507.316	29.18355
507.524	10.75184
507.733	-60.92707
507.941	10.75184
508.149	-13.82379
508.357	-48.63926
508.565	25.08762
508.773	43.51934
508.981	-36.35145
509.189	-46.59129
509.397	-60.92707
509.605	-17.91973
509.812	35.32746
510.02	-19.9677
510.228	0.51199
510.436	0.51199
510.644	-19.9677
510.852	-24.06363
511.06	-24.06363
511.268	-7.67988
511.476	-28.15957
511.684	-38.39941
511.891	49.66324
512.099	27.13559
512.307	-38.39941
512.515	-11.77582
512.723	25.08762
512.93	31.23152
513.138	-24.06363
513.346	4.60793
513.554	-60.92707
513.761	14.84777
513.969	47.61527
514.177	-28.15957
514.385	-36.35145
514.592	20.99168
514.8	39.4234
515.008	16.89574
515.215	23.03965
515.423	23.03965
515.631	-62.97504
515.838	-11.77582
516.046	-38.39941
516.254	37.37543
516.461	-9.72785
516.669	-19.9677
516.876	-9.72785
517.084	25.08762
517.292	-56.83113
517.499	86.52668
517.707	-44.54332
517.914	-48.63926
518.122	-32.25551
518.329	-75.26285
518.537	-54.78316
518.744	25.08762
518.952	-50.68723
519.159	18.94371
519.367	-28.15957
519.574	-13.82379
519.782	-52.7352
519.989	-7.67988
520.197	14.84777
520.404	-40.44738
520.611	-52.7352
520.819	0.51199
521.026	20.99168
521.234	-60.92707
521.441	-48.63926
521.648	-52.7352
521.856	4.60793
522.063	-19.9677
522.27	-60.92707
522.478	-75.26285
522.685	61.95105
522.892	33.27949
523.1	0.51199
523.307	20.99168
523.514	-15.87176
523.721	2.55996
523.929	-69.11895
524.136	-1.53598
524.343	14.84777
524.55	14.84777
524.757	-26.1116
524.965	-9.72785
525.172	0.51199
525.379	-1.53598
525.586	-69.11895
525.793	-42.49535
526	-28.15957
526.208	-9.72785
526.415	39.4234
526.622	-11.77582
526.829	-32.25551
527.036	-7.67988
527.243	74.23887
527.45	-15.87176
527.657	4.60793
527.864	18.94371
528.071	12.7998
528.278	27.13559
528.485	-30.20754
528.692	53.75918
528.899	12.7998
529.106	-32.25551
529.313	-5.63191
529.52	4.60793
529.727	-19.9677
529.934	-3.58395
530.141	-1.53598
530.348	4.60793
530.555	-13.82379
530.762	-24.06363
530.968	90.62262
531.175	-32.25551
531.382	66.04699
531.589	59.90309
531.796	-3.58395
532.003	-40.44738
532.21	-60.92707
532.416	-52.7352
532.623	-54.78316
532.83	-13.82379
533.037	-52.7352
533.243	20.99168
533.45	-3.58395
533.657	-3.58395
533.864	-24.06363
534.07	25.08762
534.277	-36.35145
534.484	53.75918
534.691	-19.9677
534.897	-48.63926
535.104	-28.15957
535.311	-73.21488
535.517	6.6559
535.724	0.51199
535.93	-58.8791
536.137	-3.58395
536.344	25.08762
536.55	-26.1116
536.757	4.60793
536.963	29.18355
537.17	8.70387
537.377	10.75184
537.583	-3.58395
537.79	-34.30348
537.996	29.18355
538.203	6.6559
538.409	8.70387
538.616	47.61527
538.822	-77.31082
539.029	-13.82379
539.235	-19.9677
539.442	63.99902
539.648	-13.82379
539.854	-77.31082
540.061	29.18355
540.267	57.85512
540.474	-36.35145
540.68	45.5673
540.886	-11.77582
541.093	4.60793
541.299	-11.77582
541.505	20.99168
541.712	0.51199
541.918	37.37543
542.124	-87.55066
542.331	35.32746
542.537	-19.9677
542.743	16.89574
542.949	-24.06363
543.156	-32.25551
543.362	-26.1116
543.568	-22.01566
543.774	0.51199
543.981	51.71121
544.187	-3.58395
544.393	33.27949
544.599	25.08762
544.805	12.7998
545.011	-34.30348
545.218	23.03965
545.424	-19.9677
545.63	-52.7352
545.836	0.51199
546.042	-1.53598
546.248	-19.9677
546.454	59.90309
546.66	-15.87176
546.866	-26.1116
547.072	41.47137
547.278	-52.7352
547.484	-40.44738
547.69	-73.21488
547.896	-3.58395
548.102	-7.67988
548.308	-38.39941
548.514	35.32746
548.72	2.55996
548.926	-36.35145
549.132	-40.44738
549.338	-58.8791
549.544	4.60793
549.75	-9.72785
549.956	20.99168
550.162	4.60793
550.368	-48.63926
550.574	33.27949
550.779	-58.8791
550.985	-13.82379
551.191	-40.44738
551.397	-13.82379
551.603	-7.67988
551.808	-36.35145
552.014	33.27949
552.22	-9.72785
552.426	-54.78316
552.632	0.51199
552.837	-34.30348
553.043	-99.83848
553.249	-22.01566
553.454	35.32746
553.66	-26.1116
553.866	0.51199
554.071	-11.77582
554.277	-38.39941
554.483	-28.15957
554.688	59.90309
554.894	-7.67988
555.1	0.51199
555.305	16.89574
555.511	-62.97504
555.716	18.94371
555.922	0.51199
556.128	-24.06363
556.333	14.84777
556.539	10.75184
556.744	-91.6466
556.95	-1.53598
557.155	47.61527
557.361	0.51199
557.566	16.89574
557.772	14.84777
557.977	84.47871
558.183	8.70387
558.388	0.51199
558.594	-9.72785
558.799	37.37543
559.004	-28.15957
559.21	-30.20754
559.415	-22.01566
559.621	100.86246
559.826	39.4234
560.031	31.23152
560.237	-9.72785
560.442	-77.31082
560.647	-40.44738
560.853	6.6559
561.058	-32.25551
561.263	-13.82379
561.468	23.03965
561.674	-56.83113
561.879	25.08762
562.084	-5.63191
562.289	-67.07098
562.495	47.61527
562.7	-7.67988
562.905	-7.67988
563.11	-56.83113
563.315	-22.01566
563.521	53.75918
563.726	-42.49535
563.931	-24.06363
564.136	70.14293
564.341	-7.67988
564.546	-1.53598
564.751	-40.44738
564.956	-19.9677
565.162	-34.30348
565.367	-112.12629
565.572	31.23152
565.777	-17.91973
565.982	-17.91973
566.187	-3.58395
566.392	-52.7352
566.597	27.13559
566.802	-5.63191
567.007	-30.20754
567.212	8.70387
567.417	-81.40676
567.622	-28.15957
567.827	8.70387
568.031	-26.1116
568.236	20.99168
568.441	-3.58395
568.646	78.3348
568.851	23.03965
569.056	68.09496
569.261	-50.68723
569.466	41.47137
569.67	-3.58395
569.875	63.99902
570.08	-5.63191
570.285	20.99168
570.49	-30.20754
570.694	45.5673
570.899	33.27949
571.104	-40.44738
571.309	-34.30348
571.513	0.51199
571.718	-77.31082
571.923	-3.58395
572.128	59.90309
572.332	-11.77582
572.537	-15.87176
572.742	-24.06363
572.946	-22.01566
573.151	33.27949
573.355	78.3348
573.56	-5.63191
573.765	-50.68723
573.969	-3.58395
574.174	-79.35879
574.378	-1.53598
574.583	27.13559
574.788	76.28684
574.992	-65.02301
575.197	14.84777
575.401	0.51199
575.606	-85.5027
575.81	41.47137
576.015	-28.15957
576.219	-38.39941
576.424	-24.06363
576.628	41.47137
576.832	-36.35145
577.037	6.6559
577.241	-17.91973
577.446	0.51199
577.65	-40.44738
577.854	-67.07098
578.059	-13.82379
578.263	-15.87176
578.467	-19.9677
578.672	-95.74254
578.876	-32.25551
579.08	-9.72785
579.285	-1.53598
579.489	-42.49535
579.693	10.75184
579.898	14.84777
580.102	84.47871
580.306	-17.91973
580.51	-24.06363
580.715	-5.63191
580.919	-62.97504
581.123	43.51934
581.327	2.55996
581.531	-46.59129
581.735	14.84777
581.94	23.03965
582.144	-24.06363
582.348	-42.49535
582.552	-13.82379
582.756	-42.49535
582.96	-34.30348
583.164	-28.15957
583.368	86.52668
583.572	-83.45473
583.776	-44.54332
583.98	25.08762
584.185	41.47137
584.389	-7.67988
584.593	0.51199
584.797	10.75184
585	-13.82379
585.204	-11.77582
585.408	-1.53598
585.612	-54.78316
585.816	-79.35879
586.02	37.37543
586.224	-58.8791
586.428	31.23152
586.632	-93.69457
586.836	43.51934
587.04	6.6559
587.244	16.89574
587.447	-5.63191
587.651	-32.25551
587.855	74.23887
588.059	45.5673
588.263	6.6559
588.466	2.55996
588.67	-65.02301
588.874	-26.1116
589.078	-40.44738
589.281	-3.58395
589.485	35.32746
589.689	20.99168
589.893	-44.54332
590.096	29.18355
590.3	-24.06363
590.504	-67.07098
590.707	-71.16691
590.911	10.75184
591.115	-5.63191
591.318	18.94371
591.522	-42.49535
591.725	-103.93441
591.929	4.60793
592.133	-40.44738
592.336	-32.25551
592.54	-32.25551
592.743	4.60793
592.947	20.99168
593.15	-44.54332
593.354	37.37543
593.557	-58.8791
593.761	-48.63926
593.964	-17.91973
594.168	-103.93441
594.371	-32.25551
594.575	-7.67988
594.778	2.55996
594.981	-52.7352
595.185	-67.07098
595.388	-69.11895
595.592	41.47137
595.795	6.6559
595.998	-19.9677
596.202	-69.11895
596.405	-3.58395
596.608	-48.63926
596.812	-28.15957
597.015	-50.68723
597.218	-44.54332
597.421	-32.25551
597.625	-22.01566
597.828	-46.59129
598.031	-7.67988
598.234	-24.06363
598.438	-17.91973
598.641	-79.35879
598.844	10.75184
599.047	8.70387
599.25	47.61527
599.453	37.37543
599.657	18.94371
599.86	29.18355
600.063	78.3348
600.266	25.08762
600.469	-26.1116
600.672	2.55996
600.875	8.70387
601.078	10.75184
601.281	82.43074
601.484	33.27949
601.687	47.61527
601.89	-24.06363
602.093	-46.59129
602.296	84.47871
602.499	80.38277
602.702	-15.87176
602.905	-34.30348
603.108	-26.1116
603.311	33.27949
603.514	-22.01566
603.717	-79.35879
603.92	35.32746
604.123	43.51934
604.326	2.55996
604.529	35.32746
604.731	-3.58395
604.934	47.61527
605.137	-15.87176
605.34	-65.02301
605.543	-22.01566
605.745	-5.63191
605.948	35.32746
606.151	2.55996
606.354	-9.72785
606.557	2.55996
606.759	4.60793
606.962	33.27949
607.165	31.23152
607.367	-30.20754
607.57	4.60793
607.773	-85.5027
607.975	-56.83113
608.178	-7.67988
608.381	-24.06363
608.583	47.61527
608.786	-36.35145
608.989	-26.1116
609.191	-42.49535
609.394	27.13559
609.596	-42.49535
609.799	-58.8791
610.001	33.27949
610.204	57.85512
610.406	25.08762
610.609	-30.20754
610.811	23.03965
611.014	25.08762
611.216	16.89574
611.419	-62.97504
611.621	-15.87176
611.824	2.55996
612.026	47.61527
612.229	-17.91973
612.431	-13.82379
612.633	59.90309
612.836	-15.87176
613.038	57.85512
613.24	-34.30348
613.443	72.1909
613.645	-22.01566
613.847	10.75184
614.05	-32.25551
614.252	-42.49535
614.454	-32.25551
614.657	23.03965
614.859	10.75184
615.061	29.18355
615.263	4.60793
615.466	33.27949
615.668	-34.30348
615.87	45.5673
616.072	-19.9677
616.274	-60.92707
616.476	31.23152
616.679	43.51934
616.881	-71.16691
617.083	20.99168
617.285	10.75184
617.487	-22.01566
617.689	-50.68723
617.891	47.61527
618.093	68.09496
618.295	-3.58395
618.497	29.18355
618.699	80.38277
618.901	16.89574
619.103	2.55996
619.305	-17.91973
619.507	20.99168
619.709	14.84777
619.911	-15.87176
620.113	-30.20754
620.315	-38.39941
620.517	33.27949
620.719	-15.87176
620.921	-5.63191
621.123	-7.67988
621.325	-1.53598
621.527	-97.79051
621.728	29.18355
621.93	-32.25551
622.132	29.18355
622.334	-7.67988
622.536	12.7998
622.737	41.47137
622.939	-87.55066
623.141	29.18355
623.343	-69.11895
623.544	-56.83113
623.746	-71.16691
623.948	47.61527
624.15	-52.7352
624.351	18.94371
624.553	20.99168
624.755	41.47137
624.956	-44.54332
625.158	-7.67988
625.36	-28.15957
625.561	-5.63191
625.763	-7.67988
625.964	53.75918
626.166	10.75184
626.367	49.66324
626.569	-17.91973
626.771	27.13559
626.972	-30.20754
627.174	4.60793
627.375	16.89574
627.577	-15.87176
627.778	-67.07098
627.98	0.51199
628.181	43.51934
628.382	-77.31082
628.584	25.08762
628.785	-13.82379
628.987	-19.9677
629.188	12.7998
629.39	18.94371
629.591	-5.63191
629.792	-1.53598
629.994	0.51199
630.195	-17.91973
630.396	43.51934
630.598	-38.39941
630.799	20.99168
631	-30.20754
631.201	4.60793
631.403	-75.26285
631.604	12.7998
631.805	16.89574
632.006	74.23887
632.208	-73.21488
632.409	37.37543
632.61	-50.68723
632.811	-19.9677
633.012	-11.77582
633.214	63.99902
633.415	-19.9677
633.616	-46.59129
633.817	-48.63926
634.018	-3.58395
634.219	-44.54332
634.42	-54.78316
634.621	-40.44738
634.822	-32.25551
635.023	39.4234
635.224	61.95105
635.425	-89.59863
635.626	47.61527
635.827	45.5673
636.028	-5.63191
636.229	20.99168
636.43	14.84777
636.631	-1.53598
636.832	-22.01566
637.033	-58.8791
637.234	10.75184
637.435	-48.63926
637.636	-32.25551
637.837	14.84777
638.037	31.23152
638.238	10.75184
638.439	-34.30348
638.64	-52.7352
638.841	-11.77582
639.042	-17.91973
639.242	-48.63926
639.443	-5.63191
639.644	-19.9677
639.845	-22.01566
640.045	-17.91973
640.246	72.1909
640.447	-87.55066
640.648	-34.30348
640.848	-19.9677
641.049	2.55996
641.25	66.04699
641.45	-28.15957
641.651	-1.53598
641.851	0.51199
642.052	20.99168
642.253	-34.30348
642.453	-19.9677
642.654	37.37543
642.854	-30.20754
643.055	-81.40676
643.255	-34.30348
643.456	-15.87176
643.656	31.23152
643.857	-22.01566
644.057	49.66324
644.258	0.51199
644.458	117.24621
644.659	-44.54332
644.859	35.32746
645.06	-46.59129
645.26	6.6559
645.46	-40.44738
645.661	2.55996
645.861	-34.30348
646.062	-44.54332
646.262	-42.49535
646.462	-26.1116
646.663	-30.20754
646.863	-9.72785
647.063	-36.35145
647.263	-32.25551
647.464	-3.58395
647.664	-69.11895
647.864	-13.82379
648.064	-5.63191
648.265	-46.59129
648.465	-3.58395
648.665	-11.77582
648.865	-71.16691
649.065	-34.30348
649.266	33.27949
649.466	12.7998
649.666	63.99902
649.866	63.99902
650.066	23.03965
650.266	-7.67988
650.466	74.23887
650.666	-13.82379
650.866	29.18355
651.067	-13.82379
651.267	-73.21488
651.467	-28.15957
651.667	12.7998
651.867	8.70387
652.067	18.94371
652.267	-38.39941
652.466	-32.25551
652.666	-19.9677
652.866	-7.67988
653.066	-75.26285
653.266	18.94371
653.466	47.61527
653.666	10.75184
653.866	37.37543
654.066	23.03965
654.266	33.27949
654.465	-26.1116
654.665	-9.72785
654.865	-7.67988
655.065	-42.49535
655.265	-81.40676
655.464	23.03965
655.664	-9.72785
655.864	-71.16691
656.064	-34.30348
656.263	23.03965
656.463	23.03965
656.663	57.85512
656.862	41.47137
657.062	-26.1116
657.262	33.27949
657.461	14.84777
657.661	-3.58395
657.861	-44.54332
658.06	-1.53598
658.26	-32.25551
658.459	-62.97504
658.659	-24.06363
658.858	-7.67988
659.058	-13.82379
659.258	-28.15957
659.457	-11.77582
659.657	63.99902
659.856	16.89574
660.056	-40.44738
660.255	35.32746
660.454	-15.87176
660.654	4.60793
660.853	20.99168
661.053	-62.97504
661.252	35.32746
661.452	0.51199
661.651	-42.49535
661.85	66.04699
662.05	20.99168
662.249	0.51199
662.448	-40.44738
662.648	8.70387
662.847	-9.72785
663.046	-11.77582
663.245	76.28684
663.445	23.03965
663.644	18.94371
663.843	2.55996
664.042	8.70387
664.242	-38.39941
664.441	18.94371
664.64	-60.92707
664.839	12.7998
665.038	-42.49535
665.237	12.7998
665.437	-5.63191
665.636	4.60793
665.835	-26.1116
666.034	12.7998
666.233	-17.91973
666.432	-48.63926
666.631	8.70387
666.83	31.23152
667.029	-38.39941
667.228	-3.58395
667.427	-130.55801
667.626	41.47137
667.825	-17.91973
668.024	-24.06363
668.223	-17.91973
668.422	-11.77582
668.621	-7.67988
668.82	-69.11895
669.019	-15.87176
669.218	31.23152
669.417	23.03965
669.615	33.27949
669.814	8.70387
670.013	-77.31082
670.212	-3.58395
670.411	20.99168
670.609	-65.02301
670.808	-46.59129
671.007	59.90309
671.206	-62.97504
671.405	-19.9677
671.603	-24.06363
671.802	-11.77582
672.001	-1.53598
672.199	-62.97504
672.398	31.23152
672.597	-9.72785
672.795	-26.1116
672.994	12.7998
673.193	-34.30348
673.391	-77.31082
673.59	-15.87176
673.789	-13.82379
673.987	33.27949
674.186	-62.97504
674.384	12.7998
674.583	0.51199
674.781	8.70387
674.98	-30.20754
675.178	-30.20754
675.377	-19.9677
675.575	-15.87176
675.774	25.08762
675.972	14.84777
676.171	39.4234
676.369	-3.58395
676.567	16.89574
676.766	25.08762
676.964	8.70387
677.163	35.32746
677.361	-22.01566
677.559	-52.7352
677.758	-50.68723
677.956	0.51199
678.154	90.62262
678.353	-15.87176
678.551	-52.7352
678.749	57.85512
678.947	-3.58395
679.146	35.32746
679.344	-60.92707
679.542	-30.20754
679.74	-30.20754
679.938	-34.30348
680.137	-56.83113
680.335	74.23887
680.533	-38.39941
680.731	-89.59863
680.929	-28.15957
681.127	-11.77582
681.325	-40.44738
681.523	10.75184
681.721	-60.92707
681.92	10.75184
682.118	-5.63191
682.316	-17.91973
682.514	-44.54332
682.712	-54.78316
682.91	68.09496
683.108	-1.53598
683.306	23.03965
683.504	-15.87176
683.701	16.89574
683.899	-50.68723
684.097	-103.93441
684.295	27.13559
684.493	0.51199
684.691	2.55996
684.889	-17.91973
685.087	70.14293
685.284	-50.68723
685.482	-13.82379
685.68	25.08762
685.878	-19.9677
686.076	43.51934
686.273	41.47137
686.471	-28.15957
686.669	18.94371
686.867	-36.35145
687.064	-19.9677
687.262	41.47137
687.46	-15.87176
687.657	31.23152
687.855	-7.67988
688.053	6.6559
688.25	-15.87176
688.448	-77.31082
688.646	-11.77582
688.843	-38.39941
689.041	45.5673
689.238	8.70387
689.436	45.5673
689.633	51.71121
689.831	-40.44738
690.029	-32.25551
690.226	-17.91973
690.424	-1.53598
690.621	-26.1116
690.818	20.99168
691.016	-13.82379
691.213	-1.53598
691.411	-40.44738
691.608	25.08762
691.806	-7.67988
692.003	84.47871
692.2	78.3348
692.398	4.60793
692.595	4.60793
692.792	-1.53598
692.99	10.75184
693.187	-22.01566
693.384	0.51199
693.582	10.75184
693.779	68.09496
693.976	-50.68723
694.173	61.95105
694.371	-15.87176
694.568	55.80715
694.765	-65.02301
694.962	-42.49535
695.159	-36.35145
695.356	4.60793
695.554	-32.25551
695.751	43.51934
695.948	-85.5027
696.145	47.61527
696.342	-7.67988
696.539	4.60793
696.736	-30.20754
696.933	2.55996
697.13	-36.35145
697.327	-28.15957
697.524	-17.91973
697.721	-3.58395
697.918	-36.35145
698.115	10.75184
698.312	-1.53598
698.509	-40.44738
698.706	53.75918
698.903	-1.53598
699.1	18.94371
699.297	10.75184
699.494	-54.78316
699.691	-56.83113
699.887	-7.67988
700.084	2.55996
700.281	-19.9677
700.478	82.43074
700.675	-17.91973
700.871	-15.87176
701.068	-9.72785
701.265	-32.25551
701.462	-19.9677
701.658	-28.15957
701.855	2.55996
702.052	-46.59129
702.249	6.6559
702.445	-11.77582
702.642	20.99168
702.839	18.94371
703.035	90.62262
703.232	61.95105
703.428	-13.82379
703.625	-9.72785
703.822	12.7998
704.018	-69.11895
704.215	-110.07832
704.411	8.70387
704.608	8.70387
704.804	-5.63191
705.001	-42.49535
705.197	25.08762
705.394	-40.44738
705.59	66.04699
705.787	-26.1116
705.983	-50.68723
706.18	4.60793
706.376	-13.82379
706.572	-73.21488
706.769	49.66324
706.965	-7.67988
707.161	23.03965
707.358	-7.67988
707.554	78.3348
707.75	-52.7352
707.947	0.51199
708.143	35.32746
708.339	20.99168
708.536	39.4234
708.732	-9.72785
708.928	-1.53598
709.124	-34.30348
709.32	-19.9677
709.517	10.75184
709.713	-30.20754
709.909	86.52668
710.105	29.18355
710.301	6.6559
710.497	-73.21488
710.693	20.99168
710.89	-40.44738
711.086	-1.53598
711.282	-110.07832
711.478	66.04699
711.674	-3.58395
711.87	-42.49535
712.066	-42.49535
712.262	45.5673
712.458	-34.30348
712.654	-97.79051
712.85	20.99168
713.046	-40.44738
713.242	-5.63191
713.438	16.89574
713.633	25.08762
713.829	-5.63191
714.025	14.84777
714.221	33.27949
714.417	0.51199
714.613	41.47137
714.809	18.94371
715.004	-40.44738
715.2	6.6559
715.396	-60.92707
715.592	-44.54332
715.788	-32.25551
715.983	-50.68723
716.179	-9.72785
716.375	-38.39941
716.57	18.94371
716.766	-40.44738
716.962	-62.97504
717.157	16.89574
717.353	82.43074
717.549	-36.35145
717.744	-15.87176
717.94	-32.25551
718.136	16.89574
718.331	-9.72785
718.527	35.32746
718.722	-36.35145
718.918	8.70387
719.113	20.99168
719.309	29.18355
719.504	-42.49535
719.7	51.71121
719.895	-46.59129
720.091	18.94371
720.286	-36.35145
720.482	-69.11895
720.677	41.47137
720.872	-7.67988
721.068	8.70387
721.263	-7.67988
721.458	14.84777
721.654	2.55996
721.849	25.08762
722.044	16.89574
722.24	10.75184
722.435	90.62262
722.63	4.60793
722.826	-7.67988
723.021	-17.91973
723.216	-3.58395
723.411	-44.54332
723.606	-17.91973
723.802	-15.87176
723.997	-19.9677
724.192	-7.67988
724.387	-38.39941
724.582	-22.01566
724.777	41.47137
724.973	-7.67988
725.168	31.23152
725.363	-36.35145
725.558	-48.63926
725.753	-38.39941
725.948	-124.4141
726.143	39.4234
726.338	-7.67988
726.533	-32.25551
726.728	-75.26285
726.923	61.95105
727.118	-67.07098
727.313	-13.82379
727.508	14.84777
727.703	-19.9677
727.897	-67.07098
728.092	-32.25551
728.287	4.60793
728.482	-7.67988
728.677	-15.87176
728.872	0.51199
729.067	8.70387
729.261	16.89574
729.456	25.08762
729.651	23.03965
729.846	-28.15957
730.04	61.95105
730.235	-24.06363
730.43	-7.67988
730.625	-30.20754
730.819	-46.59129
731.014	37.37543
731.209	-40.44738
731.403	39.4234
731.598	-9.72785
731.793	51.71121
731.987	-44.54332
732.182	-38.39941
732.376	-56.83113
732.571	-62.97504
732.765	-91.6466
732.96	-36.35145
733.155	-7.67988
733.349	57.85512
733.544	-5.63191
733.738	-46.59129
733.932	-24.06363
734.127	-24.06363
734.321	-13.82379
734.516	-30.20754
734.71	16.89574
734.905	-15.87176
735.099	-30.20754
735.293	-7.67988
735.488	-17.91973
735.682	-9.72785
735.876	-7.67988
736.071	29.18355
736.265	-15.87176
736.459	-19.9677
736.654	35.32746
736.848	12.7998
737.042	-24.06363
737.236	-24.06363
737.431	72.1909
737.625	-17.91973
737.819	-42.49535
738.013	-5.63191
738.207	18.94371
738.401	41.47137
738.596	-28.15957
738.79	-65.02301
738.984	-7.67988
739.178	35.32746
739.372	-58.8791
739.566	-26.1116
739.76	-44.54332
739.954	-13.82379
740.148	20.99168
740.342	-24.06363
740.536	-7.67988
740.73	-48.63926
740.924	-3.58395
741.118	-42.49535
741.312	-36.35145
741.506	8.70387
741.7	-26.1116
741.894	-30.20754
742.087	16.89574
742.281	-15.87176
742.475	12.7998
742.669	-48.63926
742.863	14.84777
743.057	-22.01566
743.25	-54.78316
743.444	-34.30348
743.638	-67.07098
743.832	84.47871
744.025	10.75184
744.219	23.03965
744.413	-60.92707
744.607	25.08762
744.8	-17.91973
744.994	-40.44738
745.188	35.32746
745.381	-11.77582
745.575	6.6559
745.768	-22.01566
745.962	-13.82379
746.156	10.75184
746.349	-22.01566
746.543	16.89574
746.736	-79.35879
746.93	43.51934
747.123	18.94371
747.317	16.89574
747.51	-58.8791
747.704	41.47137
747.897	-15.87176
748.091	-19.9677
748.284	35.32746
748.478	-81.40676
748.671	-54.78316
748.864	-32.25551
749.058	-30.20754
749.251	-71.16691
749.444	18.94371
749.638	10.75184
749.831	-32.25551
750.024	-15.87176
750.218	-67.07098
750.411	-1.53598
750.604	18.94371
750.797	-11.77582
750.991	-17.91973
751.184	-38.39941
751.377	-17.91973
751.57	45.5673
751.763	-42.49535
751.956	-17.91973
752.15	-3.58395
752.343	41.47137
752.536	49.66324
752.729	-28.15957
752.922	-13.82379
753.115	-7.67988
753.308	33.27949
753.501	4.60793
753.694	66.04699
753.887	-28.15957
754.08	61.95105
754.273	-52.7352
754.466	45.5673
754.659	-32.25551
754.852	-58.8791
755.045	-50.68723
755.238	33.27949
755.431	-75.26285
755.624	23.03965
755.817	100.86246
756.009	-36.35145
756.202	41.47137
756.395	-38.39941
756.588	8.70387
756.781	-67.07098
756.973	2.55996
757.166	0.51199
757.359	12.7998
757.552	4.60793
757.744	-69.11895
757.937	-22.01566
758.13	-73.21488
758.322	-26.1116
758.515	49.66324
758.708	0.51199
758.9	-5.63191
759.093	0.51199
759.286	-11.77582
759.478	18.94371
759.671	-19.9677
759.863	27.13559
760.056	74.23887
760.248	37.37543
760.441	16.89574
760.633	-26.1116
760.826	-38.39941
761.018	-77.31082
761.211	-48.63926
761.403	-15.87176
761.596	27.13559
761.788	2.55996
761.981	-58.8791
762.173	6.6559
762.365	41.47137
762.558	-15.87176
762.75	-3.58395
762.942	8.70387
763.135	25.08762
763.327	-17.91973
763.519	6.6559
763.712	-1.53598
763.904	-40.44738
764.096	-60.92707
764.288	-19.9677
764.481	6.6559
764.673	57.85512
764.865	47.61527
765.057	-7.67988
765.249	-28.15957
765.441	76.28684
765.634	-56.83113
765.826	27.13559
766.018	25.08762
766.21	-65.02301
766.402	4.60793
766.594	-28.15957
766.786	20.99168
766.978	45.5673
767.17	-58.8791
767.362	18.94371
767.554	31.23152
767.746	-48.63926
767.938	-28.15957
768.13	45.5673
768.322	63.99902
768.514	-40.44738
768.706	61.95105
768.898	-34.30348
769.089	18.94371
769.281	10.75184
769.473	-40.44738
769.665	16.89574
769.857	-9.72785
770.049	-58.8791
770.24	-26.1116
770.432	-83.45473
770.624	61.95105
770.816	-5.63191
771.007	-26.1116
771.199	-36.35145
771.391	4.60793
771.582	-34.30348
771.774	-7.67988
771.966	25.08762
772.157	-7.67988
772.349	-48.63926
772.541	-56.83113
772.732	33.27949
772.924	41.47137
773.115	-28.15957
773.307	-24.06363
773.498	-13.82379
773.69	33.27949
773.881	4.60793
774.073	2.55996
774.264	23.03965
774.456	25.08762
774.647	-15.87176
774.839	-15.87176
775.03	35.32746
775.221	-1.53598
775.413	-46.59129
775.604	25.08762
775.796	23.03965
775.987	0.51199
776.178	-22.01566
776.37	-40.44738
776.561	-42.49535
776.752	-32.25551
776.943	-1.53598
777.135	-17.91973
777.326	10.75184
777.517	29.18355
777.708	0.51199
777.899	-11.77582
778.091	61.95105
778.282	4.60793
778.473	0.51199
778.664	51.71121
778.855	-3.58395
779.046	-17.91973
779.237	35.32746
779.428	-9.72785
779.62	18.94371
779.811	0.51199
780.002	-7.67988
780.193	33.27949
780.384	12.7998
780.575	-15.87176
780.766	-52.7352
780.957	33.27949
781.148	-3.58395
781.338	-5.63191
781.529	-19.9677
781.72	-1.53598
781.911	25.08762
782.102	-26.1116
782.293	82.43074
782.484	41.47137
782.674	16.89574
782.865	37.37543
783.056	-11.77582
783.247	-40.44738
783.438	-62.97504
783.628	16.89574
783.819	-1.53598
784.01	33.27949
784.201	20.99168
784.391	-34.30348
784.582	20.99168
784.773	-44.54332
784.963	-50.68723
785.154	-36.35145
785.344	27.13559
785.535	2.55996
785.726	-1.53598
785.916	-24.06363
786.107	-9.72785
786.297	-3.58395
786.488	59.90309
786.678	-26.1116
786.869	-30.20754
787.059	72.1909
787.25	-11.77582
787.44	2.55996
787.631	18.94371
787.821	74.23887
788.012	51.71121
788.202	39.4234
788.392	39.4234
788.583	-42.49535
788.773	-79.35879
788.963	-15.87176
789.154	-46.59129
789.344	25.08762
789.534	-17.91973
789.724	-62.97504
789.915	-9.72785
790.105	-30.20754
790.295	4.60793
790.485	-52.7352
790.676	-83.45473
790.866	-46.59129
791.056	25.08762
791.246	-48.63926
791.436	-34.30348
791.626	4.60793
791.816	-24.06363
792.007	0.51199
792.197	57.85512
792.387	-36.35145
792.577	-52.7352
792.767	-36.35145
792.957	-5.63191
793.147	0.51199
793.337	12.7998
793.527	-7.67988
793.717	88.57465
793.907	-26.1116
794.097	-87.55066
794.287	-85.5027
794.476	-26.1116
794.666	2.55996
794.856	16.89574
795.046	-1.53598
795.236	29.18355
795.426	59.90309
795.615	-15.87176
795.805	-30.20754
795.995	-17.91973
796.185	-17.91973
796.375	31.23152
796.564	-9.72785
796.754	23.03965
796.944	-7.67988
797.133	16.89574
797.323	49.66324
797.513	10.75184
797.702	12.7998
797.892	-34.30348
798.082	-62.97504
798.271	41.47137
798.461	-22.01566
798.65	51.71121
798.84	-30.20754
799.029	-50.68723
799.219	-7.67988
799.408	-9.72785
799.598	-77.31082
799.787	68.09496
799.977	-5.63191
800.166	16.89574
800.356	35.32746
800.545	-62.97504
800.735	-15.87176
800.924	0.51199
801.113	-19.9677
801.303	41.47137
801.492	18.94371
801.681	-34.30348
801.871	-48.63926
802.06	18.94371
802.249	-34.30348
802.438	-7.67988
802.628	-34.30348
802.817	-9.72785
803.006	16.89574
803.195	-7.67988
803.385	-85.5027
803.574	-24.06363
803.763	-26.1116
803.952	-1.53598
804.141	-13.82379
804.33	31.23152
804.519	-38.39941
804.708	6.6559
804.897	-58.8791
805.087	-30.20754
805.276	-54.78316
805.465	6.6559
805.654	8.70387
805.843	-15.87176
806.032	-62.97504
806.22	-32.25551
806.409	70.14293
806.598	29.18355
806.787	-22.01566
806.976	-28.15957
807.165	-11.77582
807.354	82.43074
807.543	-54.78316
807.732	2.55996
807.92	-3.58395
808.109	-7.67988
808.298	-3.58395
808.487	10.75184
808.676	18.94371
808.864	-24.06363
809.053	16.89574
809.242	25.08762
809.43	47.61527
809.619	-11.77582
809.808	8.70387
809.996	-81.40676
810.185	-83.45473
810.374	8.70387
810.562	14.84777
810.751	4.60793
810.939	-3.58395
811.128	8.70387
811.317	4.60793
811.505	37.37543
811.694	-52.7352
811.882	31.23152
812.071	-48.63926
812.259	25.08762
812.448	-24.06363
812.636	12.7998
812.824	70.14293
813.013	78.3348
813.201	-36.35145
813.39	29.18355
813.578	6.6559
813.766	-13.82379
813.955	4.60793
814.143	-32.25551
814.331	-48.63926
814.519	-54.78316
814.708	0.51199
814.896	41.47137
815.084	43.51934
815.272	29.18355
815.461	43.51934
815.649	82.43074
815.837	37.37543
816.025	29.18355
816.213	-17.91973
816.401	2.55996
816.59	39.4234
816.778	2.55996
816.966	39.4234
817.154	-22.01566
817.342	-1.53598
817.53	-42.49535
817.718	-83.45473
817.906	47.61527
818.094	-30.20754
818.282	16.89574
818.47	-7.67988
818.658	-44.54332
818.846	45.5673
819.034	-24.06363
819.222	27.13559
819.409	-1.53598
819.597	10.75184
819.785	-15.87176
819.973	-48.63926
820.161	49.66324
820.349	33.27949
820.536	-7.67988
820.724	0.51199
820.912	23.03965
821.1	39.4234
821.287	20.99168
821.475	23.03965
821.663	2.55996
821.85	12.7998
822.038	-50.68723
822.226	-19.9677
822.413	-30.20754
822.601	-11.77582
822.789	-13.82379
822.976	6.6559
823.164	33.27949
823.351	-9.72785
823.539	4.60793
823.726	-32.25551
823.914	6.6559
824.101	-87.55066
824.289	29.18355
824.476	25.08762
824.664	-46.59129
824.851	-69.11895
825.039	37.37543
825.226	-110.07832
825.413	51.71121
825.601	68.09496
825.788	-28.15957
825.976	-69.11895
826.163	8.70387
826.35	-54.78316
826.537	-5.63191
826.725	-44.54332
826.912	33.27949
827.099	-1.53598
827.286	-89.59863
827.474	-17.91973
827.661	39.4234
827.848	51.71121
828.035	0.51199
828.222	8.70387
828.409	12.7998
828.597	0.51199
828.784	-5.63191
828.971	-44.54332
829.158	-1.53598
829.345	12.7998
829.532	27.13559
829.719	-48.63926
829.906	33.27949
830.093	18.94371
830.28	23.03965
830.467	14.84777
830.654	-48.63926
830.841	31.23152
831.028	-32.25551
831.215	-38.39941
831.402	-60.92707
831.588	20.99168
831.775	-28.15957
831.962	-77.31082
832.149	-36.35145
832.336	-62.97504
832.522	8.70387
832.709	29.18355
832.896	-17.91973
833.083	-19.9677
833.269	-15.87176
833.456	-36.35145
833.643	-42.49535
833.83	-73.21488
834.016	12.7998
834.203	-36.35145
834.39	49.66324
834.576	41.47137
834.763	12.7998
834.949	-11.77582
835.136	-34.30348
835.322	-69.11895
835.509	-60.92707
835.695	-38.39941
835.882	8.70387
836.068	-3.58395
836.255	-56.83113
836.441	39.4234
836.628	45.5673
836.814	-40.44738
837.001	68.09496
837.187	29.18355
837.373	43.51934
837.56	-3.58395
837.746	-69.11895
837.933	-26.1116
838.119	-3.58395
838.305	88.57465
838.491	45.5673
838.678	88.57465
838.864	-9.72785
839.05	-36.35145
839.236	-36.35145
839.423	-40.44738
839.609	8.70387
839.795	2.55996
839.981	29.18355
840.167	16.89574
840.353	2.55996
840.54	-9.72785
840.726	-17.91973
840.912	-24.06363
841.098	-15.87176
841.284	18.94371
841.47	43.51934
841.656	37.37543
841.842	-52.7352
842.028	-11.77582
842.214	-50.68723
842.4	29.18355
842.586	27.13559
842.772	61.95105
842.958	-3.58395
843.143	-34.30348
843.329	-7.67988
843.515	27.13559
843.701	-19.9677
843.887	-11.77582
844.073	80.38277
844.258	-52.7352
844.444	6.6559
844.63	-79.35879
844.816	41.47137
845.001	29.18355
845.187	-1.53598
845.373	2.55996
845.559	8.70387
845.744	-3.58395
845.93	76.28684
846.115	12.7998
846.301	-34.30348
846.487	-40.44738
846.672	-38.39941
846.858	-9.72785
847.043	18.94371
847.229	33.27949
847.414	-3.58395
847.6	-36.35145
847.785	-26.1116
847.971	0.51199
848.156	-42.49535
848.342	-56.83113
848.527	57.85512
848.713	31.23152
848.898	-52.7352
849.083	-5.63191
849.269	2.55996
849.454	16.89574
849.639	-58.8791
849.825	-42.49535
850.01	49.66324
850.195	-44.54332
850.381	61.95105
850.566	-60.92707
850.751	14.84777
850.936	-40.44738
851.122	-24.06363
851.307	-13.82379
851.492	12.7998
851.677	-28.15957
851.862	-48.63926
852.047	20.99168
852.232	37.37543
852.417	-93.69457
852.603	23.03965
852.788	41.47137
852.973	4.60793
853.158	35.32746
853.343	-19.9677
853.528	43.51934
853.713	-28.15957
853.898	6.6559
854.083	107.00637
854.267	-17.91973
854.452	-48.63926
854.637	-56.83113
854.822	33.27949
855.007	14.84777
855.192	-19.9677
855.377	-56.83113
855.562	-15.87176
855.746	-60.92707
855.931	-7.67988
856.116	-32.25551
856.301	27.13559
856.485	-30.20754
856.67	-13.82379
856.855	-7.67988
857.039	-65.02301
857.224	-1.53598
857.409	-3.58395
857.593	-22.01566
857.778	12.7998
857.963	-32.25551
858.147	-11.77582
858.332	-15.87176
858.516	2.55996
858.701	35.32746
858.885	6.6559
859.07	0.51199
859.254	6.6559
859.439	-17.91973
859.623	-26.1116
859.808	12.7998
859.992	-56.83113
860.177	-69.11895
860.361	-24.06363
860.545	-75.26285
860.73	6.6559
860.914	4.60793
861.098	-32.25551
861.283	-9.72785
861.467	-19.9677
861.651	35.32746
861.836	27.13559
862.02	-3.58395
862.204	0.51199
862.388	-1.53598
862.572	-3.58395
862.757	-22.01566
862.941	14.84777
863.125	-38.39941
863.309	-15.87176
863.493	57.85512
863.677	-3.58395
863.861	-7.67988
864.045	25.08762
864.23	-24.06363
864.414	45.5673
864.598	27.13559
864.782	-11.77582
864.966	35.32746
865.15	61.95105
865.334	80.38277
865.517	2.55996
865.701	-56.83113
865.885	-30.20754
866.069	-42.49535
866.253	0.51199
866.437	18.94371
866.621	-15.87176
866.805	45.5673
866.988	18.94371
867.172	6.6559
867.356	29.18355
867.54	-65.02301
867.723	-11.77582
867.907	-24.06363
868.091	-15.87176
868.275	31.23152
868.458	27.13559
868.642	-15.87176
868.826	35.32746
869.009	-52.7352
869.193	-56.83113
869.376	-48.63926
869.56	23.03965
869.744	-17.91973
869.927	-38.39941
870.111	-11.77582
870.294	-38.39941
870.478	-5.63191
870.661	-32.25551
870.845	-17.91973
871.028	18.94371
871.211	-17.91973
871.395	47.61527
871.578	12.7998
871.762	6.6559
871.945	18.94371
872.128	-118.2702
872.312	-69.11895
872.495	-56.83113
872.678	6.6559
872.862	6.6559
873.045	-9.72785
873.228	-60.92707
873.411	37.37543
873.595	-32.25551
873.778	-1.53598
873.961	-22.01566
874.144	10.75184
874.327	14.84777
874.51	-44.54332
874.694	23.03965
874.877	-32.25551
875.06	43.51934
875.243	-48.63926
875.426	16.89574
875.609	-52.7352
875.792	-9.72785
875.975	20.99168
876.158	25.08762
876.341	-40.44738
876.524	68.09496
876.707	-9.72785
876.89	16.89574
877.073	-22.01566
877.255	-11.77582
877.438	-24.06363
877.621	-11.77582
877.804	-7.67988
877.987	27.13559
878.17	-13.82379
878.352	-1.53598
878.535	-7.67988
878.718	12.7998
878.901	-46.59129
879.083	-9.72785
879.266	-81.40676
879.449	33.27949
879.631	23.03965
879.814	51.71121
879.997	16.89574
880.179	25.08762
880.362	-83.45473
880.545	6.6559
880.727	-48.63926
880.91	-5.63191
881.092	-91.6466
881.275	31.23152
881.457	27.13559
881.64	-9.72785
881.822	-77.31082
882.005	39.4234
882.187	6.6559
882.37	-83.45473
882.552	27.13559
882.734	-30.20754
882.917	-22.01566
883.099	37.37543
883.281	-69.11895
883.464	31.23152
883.646	-48.63926
883.828	16.89574
884.011	94.71855
884.193	20.99168
884.375	-13.82379
884.557	39.4234
884.74	31.23152
884.922	72.1909
885.104	29.18355
885.286	-65.02301
885.468	-73.21488
885.65	-24.06363
885.832	-36.35145
886.015	-50.68723
886.197	63.99902
886.379	-38.39941
886.561	14.84777
886.743	-75.26285
886.925	2.55996
887.107	4.60793
887.289	-36.35145
887.471	-38.39941
887.653	-9.72785
887.835	29.18355
888.016	-58.8791
888.198	27.13559
888.38	-71.16691
888.562	-19.9677
888.744	-9.72785
888.926	-52.7352
889.108	-58.8791
889.289	-3.58395
889.471	-30.20754
889.653	-32.25551
889.835	0.51199
890.016	-19.9677
890.198	20.99168
890.38	0.51199
890.561	29.18355
890.743	20.99168
890.925	18.94371
891.106	10.75184
891.288	-13.82379
891.469	70.14293
891.651	23.03965
891.833	-62.97504
892.014	-99.83848
892.196	-3.58395
892.377	-46.59129
892.559	-15.87176
892.74	55.80715
892.922	23.03965
893.103	-19.9677
893.284	-22.01566
893.466	-32.25551
893.647	-9.72785
893.829	-44.54332
894.01	16.89574
894.191	-34.30348
894.373	-13.82379
894.554	-36.35145
894.735	47.61527
894.916	25.08762
895.098	-9.72785
895.279	-28.15957
895.46	53.75918
895.641	-19.9677
895.823	-19.9677
896.004	-60.92707
896.185	-26.1116
896.366	35.32746
896.547	20.99168
896.728	-11.77582
896.909	6.6559
897.09	-13.82379
897.271	-1.53598
897.452	-9.72785
897.633	-7.67988
897.814	-101.88645
897.995	-11.77582
898.176	6.6559
898.357	25.08762
898.538	-17.91973
898.719	10.75184
898.9	-91.6466
899.081	6.6559
899.262	-30.20754
899.443	74.23887
899.623	8.70387
899.804	8.70387
899.985	-7.67988
900.166	0.51199
900.347	-26.1116
900.527	20.99168
900.708	10.75184
900.889	27.13559
901.07	-36.35145
901.25	33.27949
901.431	16.89574
901.611	59.90309
901.792	-7.67988
901.973	45.5673
902.153	-11.77582
902.334	10.75184
902.514	-73.21488
902.695	-11.77582
902.876	-42.49535
903.056	12.7998
903.237	-112.12629
903.417	2.55996
903.597	-40.44738
903.778	66.04699
903.958	4.60793
904.139	-58.8791
904.319	-26.1116
904.499	8.70387
904.68	-89.59863
904.86	18.94371
905.04	-19.9677
905.221	-32.25551
905.401	-26.1116
905.581	-22.01566
905.762	-40.44738
905.942	41.47137
906.122	-5.63191
906.302	39.4234
906.482	39.4234
906.663	-40.44738
906.843	-26.1116
907.023	-11.77582
907.203	-75.26285
907.383	-40.44738
907.563	-32.25551
907.743	14.84777
907.923	-15.87176
908.103	-34.30348
908.283	-32.25551
908.463	-19.9677
908.643	-11.77582
908.823	18.94371
909.003	-28.15957
909.183	25.08762
909.363	-44.54332
909.543	63.99902
909.723	-34.30348
909.903	4.60793
910.082	25.08762
910.262	78.3348
910.442	53.75918
910.622	18.94371
910.802	-26.1116
910.981	-58.8791
911.161	29.18355
911.341	-13.82379
911.521	33.27949
911.7	10.75184
911.88	-89.59863
912.06	35.32746
912.239	74.23887
912.419	-54.78316
912.598	68.09496
912.778	6.6559
912.958	-24.06363
913.137	12.7998
913.317	-30.20754
913.496	31.23152
913.676	-60.92707
913.855	20.99168
914.035	14.84777
914.214	-7.67988
914.393	12.7998
914.573	-56.83113
914.752	-7.67988
914.932	-30.20754
915.111	-22.01566
915.29	4.60793
915.47	29.18355
915.649	-24.06363
915.828	-11.77582
916.008	-15.87176
916.187	8.70387
916.366	4.60793
916.545	0.51199
916.724	78.3348
916.904	6.6559
917.083	23.03965
917.262	37.37543
917.441	74.23887
917.62	-15.87176
917.799	16.89574
917.978	-11.77582
918.158	-48.63926
918.337	-5.63191
918.516	-67.07098
918.695	0.51199
918.874	-30.20754
919.053	-3.58395
919.232	0.51199
919.41	-3.58395
919.589	61.95105
919.768	-34.30348
919.947	66.04699
920.126	8.70387
920.305	18.94371
920.484	-77.31082
920.663	68.09496
920.841	29.18355
921.02	25.08762
921.199	18.94371
921.378	25.08762
921.556	-69.11895
921.735	-22.01566
921.914	-50.68723
922.093	-30.20754
922.271	20.99168
922.45	-15.87176
922.629	-3.58395
922.807	-13.82379
922.986	-17.91973
923.164	-15.87176
923.343	-22.01566
923.521	-9.72785
923.7	66.04699
923.878	39.4234
924.057	8.70387
924.235	27.13559
924.414	25.08762
924.592	-15.87176
924.771	35.32746
924.949	-36.35145
925.128	-5.63191
925.306	-7.67988
925.484	33.27949
925.663	0.51199
925.841	41.47137
926.019	-30.20754
926.198	-22.01566
926.376	4.60793
926.554	6.6559
926.732	-9.72785
926.91	35.32746
927.089	45.5673
927.267	6.6559
927.445	-13.82379
927.623	-22.01566
927.801	-44.54332
927.979	-24.06363
928.158	16.89574
928.336	35.32746
928.514	12.7998
928.692	-7.67988
928.87	-22.01566
929.048	-93.69457
929.226	27.13559
929.404	-19.9677
929.582	33.27949
929.76	-22.01566
929.937	25.08762
930.115	-34.30348
930.293	-5.63191
930.471	27.13559
930.649	4.60793
930.827	-26.1116
931.005	-56.83113
931.182	-26.1116
931.36	-13.82379
931.538	20.99168
931.716	43.51934
931.893	-19.9677
932.071	43.51934
932.249	23.03965
932.426	16.89574
932.604	23.03965
932.782	53.75918
932.959	-19.9677
933.137	25.08762
933.315	-50.68723
933.492	-19.9677
933.67	-34.30348
933.847	-3.58395
934.025	8.70387
934.202	-54.78316
934.38	-28.15957
934.557	33.27949
934.735	-56.83113
934.912	-26.1116
935.089	57.85512
935.267	-15.87176
935.444	41.47137
935.622	-1.53598
935.799	12.7998
935.976	45.5673
936.154	-1.53598
936.331	-62.97504
936.508	35.32746
936.685	-24.06363
936.863	-38.39941
937.04	66.04699
937.217	45.5673
937.394	-32.25551
937.571	-5.63191
937.748	37.37543
937.926	51.71121
938.103	8.70387
938.28	14.84777
938.457	2.55996
938.634	-42.49535
938.811	-26.1116
938.988	-5.63191
939.165	-15.87176
939.342	-1.53598
939.519	-36.35145
939.696	18.94371
939.873	-3.58395
940.05	35.32746
940.227	10.75184
940.404	12.7998
940.58	-38.39941
940.757	68.09496
940.934	82.43074
941.111	-17.91973
941.288	-40.44738
941.464	-83.45473
941.641	8.70387
941.818	-7.67988
941.995	74.23887
942.171	-11.77582
942.348	-69.11895
942.525	-36.35145
942.701	45.5673
942.878	78.3348
943.055	31.23152
943.231	-52.7352
943.408	6.6559
943.584	57.85512
943.761	18.94371
943.937	47.61527
944.114	-17.91973
944.29	-48.63926
944.467	0.51199
944.643	18.94371
944.82	-3.58395
944.996	-26.1116
945.173	6.6559
945.349	70.14293
945.525	16.89574
945.702	8.70387
945.878	12.7998
946.054	-46.59129
946.231	-30.20754
946.407	-24.06363
946.583	33.27949
946.759	23.03965
946.936	0.51199
947.112	-44.54332
947.288	-3.58395
947.464	41.47137
947.64	33.27949
947.816	-52.7352
947.992	6.6559
948.169	12.7998
948.345	-50.68723
948.521	6.6559
948.697	-7.67988
948.873	10.75184
949.049	-3.58395
949.225	-3.58395
949.401	-19.9677
949.577	55.80715
949.753	-36.35145
949.929	12.7998
950.104	-28.15957
950.28	-44.54332
950.456	66.04699
950.632	-46.59129
950.808	41.47137
950.984	-40.44738
951.159	27.13559
951.335	-9.72785
951.511	0.51199
951.687	33.27949
951.862	-52.7352
952.038	0.51199
952.214	-108.03035
952.39	-1.53598
952.565	-28.15957
952.741	-34.30348
952.916	25.08762
953.092	-24.06363
953.268	-28.15957
953.443	41.47137
953.619	-62.97504
953.794	55.80715
953.97	-15.87176
954.145	-24.06363
954.321	27.13559
954.496	35.32746
954.672	-38.39941
954.847	-24.06363
955.022	23.03965
955.198	4.60793
955.373	-3.58395
955.548	-24.06363
955.724	12.7998
955.899	20.99168
956.074	-60.92707
956.25	-36.35145
956.425	-19.9677
956.6	-15.87176
956.775	-30.20754
956.951	-24.06363
957.126	0.51199
957.301	-62.97504
957.476	43.51934
957.651	-79.35879
957.826	-19.9677
958.001	49.66324
958.176	4.60793
958.352	45.5673
958.527	-1.53598
958.702	-67.07098
958.877	20.99168
959.052	-52.7352
959.227	-17.91973
959.401	-54.78316
959.576	-24.06363
959.751	29.18355
959.926	-62.97504
960.101	18.94371
960.276	18.94371
960.451	-5.63191
960.626	59.90309
960.8	94.71855
960.975	-5.63191
961.15	-28.15957
961.325	51.71121
961.499	45.5673
961.674	12.7998
961.849	20.99168
962.023	2.55996
962.198	-79.35879
962.373	45.5673
962.547	16.89574
962.722	0.51199
962.897	-38.39941
963.071	-22.01566
963.246	74.23887
963.42	-9.72785
963.595	35.32746
963.769	-30.20754
963.944	-42.49535
964.118	41.47137
964.293	-28.15957
964.467	-48.63926
964.641	-5.63191
964.816	-19.9677
964.99	-75.26285
965.165	-7.67988
965.339	-30.20754
965.513	27.13559
965.687	16.89574
965.862	68.09496
966.036	-65.02301
966.21	72.1909
966.384	-34.30348
966.559	20.99168
966.733	-1.53598
966.907	-1.53598
967.081	16.89574
967.255	74.23887
967.429	14.84777
967.604	-11.77582
967.778	-42.49535
967.952	66.04699
968.126	23.03965
968.3	-54.78316
968.474	-26.1116
968.648	12.7998
968.822	29.18355
968.996	-36.35145
969.17	-5.63191
969.343	35.32746
969.517	-28.15957
969.691	-28.15957
969.865	10.75184
970.039	45.5673
970.213	96.76652
970.387	84.47871
970.56	20.99168
970.734	-13.82379
970.908	18.94371
971.082	-32.25551
971.255	8.70387
971.429	-30.20754
971.603	-36.35145
971.776	-28.15957
971.95	6.6559
972.124	14.84777
972.297	-40.44738
972.471	29.18355
972.644	-32.25551
972.818	35.32746
972.991	35.32746
973.165	0.51199
973.338	-19.9677
973.512	51.71121
973.685	14.84777
973.859	12.7998
974.032	-3.58395
974.206	-3.58395
974.379	14.84777
974.552	10.75184
974.726	-19.9677
974.899	-42.49535
975.072	-7.67988
975.246	-9.72785
975.419	-15.87176
975.592	33.27949
975.765	2.55996
975.939	27.13559
976.112	18.94371
976.285	18.94371
976.458	-36.35145
976.631	37.37543
976.804	37.37543
976.977	12.7998
977.151	16.89574
977.324	102.91043
977.497	25.08762
977.67	25.08762
977.843	-40.44738
978.016	10.75184
978.189	-112.12629
978.362	18.94371
978.535	-34.30348
978.707	-91.6466
978.88	-28.15957
979.053	107.00637
979.226	-19.9677
979.399	-85.5027
979.572	0.51199
979.745	-40.44738
979.917	6.6559
980.09	-7.67988
980.263	-32.25551
980.436	51.71121
980.608	-15.87176
980.781	-11.77582
980.954	-60.92707
981.126	2.55996
981.299	-15.87176
981.472	25.08762
981.644	-17.91973
981.817	-95.74254
981.989	-52.7352
982.162	14.84777
982.335	-11.77582
982.507	78.3348
982.68	-34.30348
982.852	-1.53598
983.024	59.90309
983.197	27.13559
983.369	-46.59129
983.542	66.04699
983.714	37.37543
983.886	45.5673
984.059	-89.59863
984.231	-13.82379
984.403	-24.06363
984.576	18.94371
984.748	-5.63191
984.92	-13.82379
985.093	51.71121
985.265	4.60793
985.437	-36.35145
985.609	29.18355
985.781	14.84777
985.953	12.7998
986.126	-24.06363
986.298	-65.02301
986.47	-38.39941
986.642	-13.82379
986.814	-19.9677
986.986	-93.69457
987.158	-15.87176
987.33	66.04699
987.502	-7.67988
987.674	6.6559
987.846	0.51199
988.018	-1.53598
988.19	-32.25551
988.361	25.08762
988.533	10.75184
988.705	-17.91973
988.877	0.51199
989.049	12.7998
989.221	-22.01566
989.392	29.18355
989.564	23.03965
989.736	45.5673
989.908	-26.1116
990.079	-38.39941
990.251	-1.53598
990.423	-54.78316
990.594	-46.59129
990.766	-19.9677
990.937	31.23152
991.109	-7.67988
991.281	-9.72785
991.452	33.27949
991.624	2.55996
991.795	-1.53598
991.967	-28.15957
992.138	-11.77582
992.31	-34.30348
992.481	-5.63191
992.652	-48.63926
992.824	-19.9677
992.995	49.66324
993.167	29.18355
993.338	0.51199
993.509	63.99902
993.681	-5.63191
993.852	-60.92707
994.023	-60.92707
994.194	-19.9677
994.366	-7.67988
994.537	66.04699
994.708	6.6559
994.879	-19.9677
995.05	10.75184
995.221	-26.1116
995.393	-11.77582
995.564	-24.06363
995.735	29.18355
995.906	-3.58395
996.077	-11.77582
996.248	-19.9677
996.419	-28.15957
996.59	-75.26285
996.761	16.89574
996.932	31.23152
997.103	0.51199
997.274	27.13559
997.444	-46.59129
997.615	-26.1116
997.786	-22.01566
997.957	-15.87176
998.128	-54.78316
998.299	20.99168
998.469	41.47137
998.64	41.47137
998.811	-101.88645
998.982	0.51199
999.152	4.60793
999.323	-5.63191
999.494	23.03965
999.664	-44.54332
999.835	-13.82379
1000.006	2.55996
1000.176	-44.54332
1000.347	-24.06363
1000.517	18.94371
1000.688	-13.82379
1000.858	-1.53598
1001.029	-1.53598
1001.199	37.37543
1001.37	10.75184
1001.54	-44.54332
1001.711	12.7998
1001.881	-5.63191
1002.051	-19.9677
1002.222	23.03965
1002.392	-73.21488
1002.562	63.99902
1002.733	-69.11895
1002.903	-38.39941
1003.073	-15.87176
1003.244	12.7998
1003.414	-60.92707
1003.584	-28.15957
1003.754	2.55996
1003.924	18.94371
1004.094	-79.35879
1004.265	-62.97504
1004.435	2.55996
1004.605	57.85512
1004.775	-34.30348
1004.945	43.51934
1005.115	12.7998
1005.285	12.7998
1005.455	57.85512
1005.625	-52.7352
1005.795	-19.9677
1005.965	-3.58395
1006.135	18.94371
1006.305	-13.82379
1006.475	14.84777
1006.645	-7.67988
1006.814	16.89574
1006.984	18.94371
1007.154	-44.54332
1007.324	-42.49535
1007.494	4.60793
1007.663	-5.63191
1007.833	61.95105
1008.003	74.23887
1008.172	0.51199
1008.342	-32.25551
1008.512	-52.7352
1008.681	-69.11895
1008.851	-95.74254
1009.021	29.18355
1009.19	59.90309
1009.36	10.75184
1009.529	27.13559
1009.699	-34.30348
1009.868	-36.35145
1010.038	-17.91973
1010.207	-77.31082
1010.377	-73.21488
1010.546	-42.49535
1010.716	-91.6466
1010.885	8.70387
1011.054	0.51199
1011.224	-36.35145
1011.393	39.4234
1011.562	-11.77582
1011.732	-26.1116
1011.901	-11.77582
1012.07	-42.49535
1012.24	-28.15957
1012.409	-34.30348
1012.578	-32.25551
1012.747	-3.58395
1012.916	-17.91973
1013.085	8.70387
1013.255	55.80715
1013.424	-13.82379
1013.593	0.51199
1013.762	-28.15957
1013.931	47.61527
1014.1	23.03965
1014.269	-75.26285
1014.438	-13.82379
1014.607	-11.77582
1014.776	45.5673
1014.945	43.51934
1015.114	10.75184
1015.283	0.51199
1015.451	8.70387
1015.62	55.80715
1015.789	-40.44738
1015.958	-11.77582
1016.127	-71.16691
1016.296	41.47137
1016.464	-9.72785
1016.633	37.37543
1016.802	39.4234
1016.971	-54.78316
1017.139	-54.78316
1017.308	-1.53598
1017.477	-67.07098
1017.645	25.08762
1017.814	-22.01566
1017.982	74.23887
1018.151	37.37543
1018.319	-22.01566
1018.488	-1.53598
1018.657	-22.01566
1018.825	-9.72785
1018.993	-81.40676
1019.162	-5.63191
1019.33	-38.39941
1019.499	2.55996
1019.667	31.23152
1019.836	-15.87176
1020.004	39.4234
1020.172	27.13559
1020.341	-5.63191
1020.509	-58.8791
1020.677	-7.67988
1020.845	16.89574
1021.014	-60.92707
1021.182	29.18355
1021.35	-40.44738
1021.518	-24.06363
1021.686	20.99168
1021.855	-24.06363
1022.023	-79.35879
1022.191	0.51199
1022.359	80.38277
1022.527	-19.9677
1022.695	-15.87176
1022.863	-7.67988
1023.031	-3.58395
1023.199	-42.49535
1023.367	41.47137
1023.535	-89.59863
1023.703	-52.7352
1023.871	-22.01566
1024.039	-13.82379
1024.207	20.99168
1024.375	20.99168
1024.542	-42.49535
1024.71	-32.25551
1024.878	-11.77582
1025.046	-19.9677
1025.213	-22.01566
1025.381	35.32746
1025.549	0.51199
1025.717	2.55996
1025.884	14.84777
1026.052	80.38277
1026.22	-17.91973
1026.387	27.13559
1026.555	10.75184
1026.722	-34.30348
1026.89	-32.25551
1027.058	-56.83113
1027.225	-36.35145
1027.393	-1.53598
1027.56	53.75918
1027.728	-13.82379
1027.895	23.03965
1028.062	-38.39941
1028.23	-52.7352
1028.397	18.94371
1028.565	-50.68723
1028.732	-1.53598
1028.899	6.6559
1029.067	-62.97504
1029.234	-42.49535
1029.401	-30.20754
1029.568	47.61527
1029.736	0.51199
1029.903	-32.25551
1030.07	12.7998
1030.237	-11.77582
1030.404	-62.97504
1030.572	-32.25551
1030.739	-32.25551
1030.906	-32.25551
1031.073	-15.87176
1031.24	-50.68723
1031.407	-1.53598
1031.574	-32.25551
1031.741	-1.53598
1031.908	-1.53598
1032.075	-36.35145
1032.242	-17.91973
1032.409	-17.91973
1032.576	-1.53598
1032.743	-9.72785
1032.91	-48.63926
1033.076	-38.39941
1033.243	37.37543
1033.41	-17.91973
1033.577	35.32746
1033.744	49.66324
1033.91	-58.8791
1034.077	-9.72785
1034.244	4.60793
1034.41	-7.67988
1034.577	-97.79051
1034.744	2.55996
1034.91	-56.83113
1035.077	-56.83113
1035.244	20.99168
1035.41	55.80715
1035.577	-48.63926
1035.743	8.70387
1035.91	-19.9677
1036.076	-19.9677
1036.243	-17.91973
1036.409	6.6559
1036.576	-11.77582
1036.742	-32.25551
1036.908	-19.9677
1037.075	-67.07098
1037.241	-81.40676
1037.408	23.03965
1037.574	4.60793
1037.74	-77.31082
1037.906	20.99168
1038.073	-7.67988
1038.239	25.08762
1038.405	-3.58395
1038.571	55.80715
1038.738	-38.39941
1038.904	-60.92707
1039.07	94.71855
1039.236	2.55996
1039.402	31.23152
1039.568	-3.58395
1039.734	-5.63191
1039.9	23.03965
1040.066	78.3348
1040.232	6.6559
1040.398	-112.12629
1040.564	-30.20754
1040.73	33.27949
1040.896	2.55996
1041.062	-7.67988
1041.228	8.70387
1041.394	29.18355
1041.56	2.55996
1041.725	-28.15957
1041.891	-42.49535
1042.057	-38.39941
1042.223	57.85512
1042.389	31.23152
1042.554	-44.54332
1042.72	31.23152
1042.886	18.94371
1043.051	-22.01566
1043.217	-7.67988
1043.383	-5.63191
1043.548	-3.58395
1043.714	-1.53598
1043.879	10.75184
1044.045	14.84777
1044.21	23.03965
1044.376	16.89574
1044.541	-11.77582
1044.707	-13.82379
1044.872	-9.72785
1045.038	-44.54332
1045.203	12.7998
1045.369	-24.06363
1045.534	0.51199
1045.699	-7.67988
1045.865	-71.16691
1046.03	27.13559
1046.195	51.71121
1046.361	-5.63191
1046.526	-24.06363
1046.691	-24.06363
1046.856	-46.59129
1047.021	-34.30348
1047.187	39.4234
1047.352	4.60793
1047.517	0.51199
1047.682	-19.9677
1047.847	-24.06363
1048.012	-71.16691
1048.177	31.23152
1048.342	-79.35879
1048.507	45.5673
1048.672	-48.63926
1048.837	-7.67988
1049.002	20.99168
1049.167	35.32746
1049.332	-15.87176
1049.497	-36.35145
1049.662	-48.63926
1049.827	20.99168
1049.992	10.75184
1050.156	-17.91973
1050.321	-30.20754
1050.486	-13.82379
1050.651	10.75184
1050.816	-28.15957
1050.98	-9.72785
1051.145	-17.91973
1051.31	20.99168
1051.474	-62.97504
1051.639	-11.77582
1051.804	-44.54332
1051.968	-44.54332
1052.133	-75.26285
1052.297	-11.77582
1052.462	31.23152
1052.626	45.5673
1052.791	-42.49535
1052.955	27.13559
1053.12	-32.25551
1053.284	-22.01566
1053.449	-30.20754
1053.613	43.51934
1053.777	-22.01566
1053.942	-13.82379
1054.106	29.18355
1054.27	-9.72785
1054.435	18.94371
1054.599	8.70387
1054.763	-34.30348
1054.928	2.55996
1055.092	-19.9677
1055.256	-5.63191
1055.42	-17.91973
1055.584	39.4234
1055.748	-19.9677
1055.913	35.32746
1056.077	-40.44738
1056.241	-28.15957
1056.405	-26.1116
1056.569	61.95105
1056.733	-9.72785
1056.897	-30.20754
1057.061	4.60793
1057.225	25.08762
1057.389	8.70387
1057.553	-44.54332
1057.717	-44.54332
1057.88	-48.63926
1058.044	33.27949
1058.208	16.89574
1058.372	-30.20754
1058.536	2.55996
1058.7	-17.91973
1058.863	0.51199
1059.027	-46.59129
1059.191	6.6559
1059.355	-50.68723
1059.518	6.6559
1059.682	-22.01566
1059.846	45.5673
1060.009	-38.39941
1060.173	14.84777
1060.336	74.23887
1060.5	8.70387
1060.663	37.37543
1060.827	-50.68723
1060.99	16.89574
1061.154	-38.39941
1061.317	0.51199
1061.481	-44.54332
1061.644	6.6559
1061.808	-1.53598
1061.971	4.60793
1062.134	-24.06363
1062.298	88.57465
1062.461	20.99168
1062.624	-85.5027
1062.788	-7.67988
1062.951	-7.67988
1063.114	39.4234
1063.277	20.99168
1063.441	33.27949
1063.604	20.99168
1063.767	-19.9677
1063.93	-48.63926
1064.093	66.04699
1064.256	86.52668
1064.419	31.23152
1064.582	-65.02301
1064.745	47.61527
1064.908	18.94371
1065.071	25.08762
1065.234	31.23152
1065.397	-50.68723
1065.56	-28.15957
1065.723	-3.58395
1065.886	-46.59129
1066.049	31.23152
1066.212	-30.20754
1066.375	2.55996
1066.537	-54.78316
1066.7	23.03965
1066.863	14.84777
1067.026	-69.11895
1067.189	16.89574
1067.351	-3.58395
1067.514	-11.77582
1067.677	-7.67988
1067.839	47.61527
1068.002	-34.30348
1068.165	-5.63191
1068.327	31.23152
1068.49	8.70387
1068.652	6.6559
1068.815	-19.9677
1068.977	-40.44738
1069.14	23.03965
1069.302	-44.54332
1069.465	-17.91973
1069.627	-71.16691
1069.79	10.75184
1069.952	-32.25551
1070.114	-52.7352
1070.277	-40.44738
1070.439	-1.53598
1070.601	2.55996
1070.764	33.27949
1070.926	10.75184
1071.088	49.66324
1071.25	10.75184
1071.413	-46.59129
1071.575	-52.7352
1071.737	39.4234
1071.899	14.84777
1072.061	-22.01566
1072.223	0.51199
1072.385	-15.87176
1072.547	-7.67988
1072.71	-19.9677
1072.872	0.51199
1073.034	-1.53598
1073.196	-56.83113
1073.358	6.6559
1073.519	49.66324
1073.681	-56.83113
1073.843	0.51199
1074.005	16.89574
1074.167	47.61527
1074.329	-73.21488
1074.491	-30.20754
1074.652	41.47137
1074.814	45.5673
1074.976	-46.59129
1075.138	-9.72785
1075.299	-22.01566
1075.461	-24.06363
1075.623	47.61527
1075.785	10.75184
1075.946	0.51199
1076.108	-15.87176
1076.269	8.70387
1076.431	-32.25551
1076.593	-22.01566
1076.754	57.85512
1076.916	-38.39941
1077.077	-58.8791
1077.239	27.13559
1077.4	-15.87176
1077.561	-17.91973
1077.723	27.13559
1077.884	-11.77582
1078.046	-89.59863
1078.207	10.75184
1078.368	14.84777
1078.53	-42.49535
1078.691	10.75184
1078.852	25.08762
1079.013	-48.63926
1079.175	25.08762
1079.336	-79.35879
1079.497	27.13559
1079.658	-52.7352
1079.819	23.03965
1079.981	-46.59129
1080.142	-28.15957
1080.303	-9.72785
1080.464	-11.77582
1080.625	-15.87176
1080.786	-32.25551
1080.947	-22.01566
1081.108	-46.59129
1081.269	-7.67988
1081.43	-36.35145
1081.591	-9.72785
1081.752	4.60793
1081.912	12.7998
1082.073	-38.39941
1082.234	18.94371
1082.395	31.23152
1082.556	-62.97504
1082.717	-87.55066
1082.877	-11.77582
1083.038	8.70387
1083.199	16.89574
1083.359	-3.58395
1083.52	-30.20754
1083.681	72.1909
1083.841	-28.15957
1084.002	-17.91973
1084.163	-1.53598
1084.323	-30.20754
1084.484	12.7998
1084.644	-42.49535
1084.805	0.51199
1084.965	-3.58395
1085.126	8.70387
1085.286	25.08762
1085.447	-48.63926
1085.607	-36.35145
1085.767	-77.31082
1085.928	37.37543
1086.088	-46.59129
1086.249	27.13559
1086.409	-11.77582
1086.569	-15.87176
1086.729	-56.83113
1086.89	-24.06363
1087.05	25.08762
1087.21	16.89574
1087.37	47.61527
1087.53	-24.06363
1087.691	-28.15957
1087.851	-30.20754
1088.011	-54.78316
1088.171	-24.06363
1088.331	-1.53598
1088.491	-40.44738
1088.651	49.66324
1088.811	55.80715
1088.971	20.99168
1089.131	20.99168
1089.291	12.7998
1089.451	-19.9677
1089.611	0.51199
1089.771	16.89574
1089.93	-36.35145
1090.09	0.51199
1090.25	-26.1116
1090.41	-40.44738
1090.57	33.27949
1090.729	-3.58395
1090.889	-75.26285
1091.049	-3.58395
1091.208	14.84777
1091.368	-11.77582
1091.528	10.75184
1091.687	0.51199
1091.847	-15.87176
1092.007	-30.20754
1092.166	8.70387
1092.326	-30.20754
1092.485	-17.91973
1092.645	-46.59129
1092.804	10.75184
1092.964	-67.07098
1093.123	0.51199
1093.282	33.27949
1093.442	25.08762
1093.601	-24.06363
1093.761	-11.77582
1093.92	-11.77582
1094.079	43.51934
1094.239	72.1909
1094.398	-1.53598
1094.557	20.99168
1094.716	10.75184
1094.876	29.18355
1095.035	-28.15957
1095.194	23.03965
1095.353	119.29418
1095.512	-40.44738
1095.671	4.60793
1095.83	35.32746
1095.989	-60.92707
1096.148	-7.67988
1096.307	12.7998
1096.466	82.43074
1096.625	-32.25551
1096.784	20.99168
1096.943	12.7998
1097.102	18.94371
1097.261	-1.53598
1097.42	8.70387
1097.579	57.85512
1097.738	-28.15957
1097.897	4.60793
1098.055	-19.9677
1098.214	-40.44738
1098.373	92.67059
1098.532	-17.91973
1098.69	-13.82379
1098.849	8.70387
1099.008	57.85512
1099.166	18.94371
1099.325	61.95105
1099.484	-3.58395
1099.642	-32.25551
1099.801	6.6559
1099.959	-38.39941
1100.118	-13.82379
1100.276	-46.59129
1100.435	57.85512
1100.593	-81.40676
1100.752	-44.54332
1100.91	2.55996
1101.068	-30.20754
1101.227	-77.31082
1101.385	0.51199
1101.544	-60.92707
1101.702	10.75184
1101.86	16.89574
1102.018	23.03965
1102.177	-36.35145
1102.335	-13.82379
1102.493	-56.83113
1102.651	-13.82379
1102.809	16.89574
1102.968	23.03965
1103.126	-24.06363
1103.284	-42.49535
1103.442	23.03965
1103.6	6.6559
1103.758	10.75184
1103.916	-26.1116
1104.074	-58.8791
1104.232	-34.30348
1104.39	23.03965
1104.548	-1.53598
1104.706	-17.91973
1104.864	117.24621
1105.022	39.4234
1105.179	-73.21488
1105.337	27.13559
1105.495	-34.30348
1105.653	70.14293
1105.811	-52.7352
1105.968	-19.9677
1106.126	-40.44738
1106.284	16.89574
1106.441	25.08762
1106.599	-22.01566
1106.757	-54.78316
1106.914	12.7998
1107.072	-30.20754
1107.23	6.6559
1107.387	-22.01566
1107.545	-11.77582
1107.702	-9.72785
1107.86	20.99168
1108.017	-15.87176
1108.175	27.13559
1108.332	-9.72785
1108.489	-3.58395
1108.647	-1.53598
1108.804	-34.30348
1108.962	-11.77582
1109.119	45.5673
1109.276	-105.98238
1109.433	-7.67988
1109.591	57.85512
1109.748	-7.67988
1109.905	-62.97504
1110.062	74.23887
1110.22	53.75918
1110.377	27.13559
1110.534	-22.01566
1110.691	4.60793
1110.848	16.89574
1111.005	-83.45473
1111.162	-32.25551
1111.319	-1.53598
1111.476	8.70387
1111.633	10.75184
1111.79	-44.54332
1111.947	-34.30348
1112.104	20.99168
1112.261	18.94371
1112.418	-1.53598
1112.575	51.71121
1112.732	29.18355
1112.888	-11.77582
1113.045	-13.82379
1113.202	-22.01566
1113.359	35.32746
1113.515	-3.58395
1113.672	4.60793
1113.829	-22.01566
1113.985	20.99168
1114.142	-38.39941
1114.299	-32.25551
1114.455	-83.45473
1114.612	8.70387
1114.769	-89.59863
1114.925	53.75918
1115.082	84.47871
1115.238	-38.39941
1115.395	53.75918
1115.551	33.27949
1115.707	4.60793
1115.864	-40.44738
1116.02	-65.02301
1116.177	16.89574
1116.333	-87.55066
1116.489	-3.58395
1116.646	-54.78316
1116.802	-9.72785
1116.958	-89.59863
1117.114	-24.06363
1117.271	-52.7352
1117.427	-34.30348
1117.583	-17.91973
1117.739	2.55996
1117.895	0.51199
1118.051	35.32746
1118.208	-19.9677
1118.364	25.08762
1118.52	-32.25551
1118.676	-50.68723
1118.832	-46.59129
1118.988	-52.7352
1119.144	-48.63926
1119.3	51.71121
1119.456	2.55996
1119.611	0.51199
1119.767	-62.97504
1119.923	-38.39941
1120.079	102.91043
1120.235	4.60793
1120.391	31.23152
1120.546	41.47137
1120.702	-69.11895
1120.858	16.89574
1121.014	49.66324
1121.169	-52.7352
1121.325	-19.9677
1121.481	-22.01566
1121.636	-1.53598
1121.792	-13.82379
1121.947	-58.8791
1122.103	-19.9677
1122.259	-3.58395
1122.414	-54.78316
1122.57	-30.20754
1122.725	-54.78316
1122.881	-19.9677
1123.036	8.70387
1123.191	-48.63926
1123.347	-13.82379
1123.502	-7.67988
1123.657	45.5673
1123.813	-40.44738
1123.968	-69.11895
1124.123	-44.54332
1124.279	27.13559
1124.434	-44.54332
1124.589	8.70387
1124.744	-26.1116
1124.9	-13.82379
1125.055	33.27949
1125.21	-3.58395
1125.365	-62.97504
1125.52	-24.06363
1125.675	-9.72785
1125.83	-7.67988
1125.985	-5.63191
1126.14	-26.1116
1126.295	18.94371
1126.45	-7.67988
1126.605	-48.63926
