Data from backuniphase1103p110838_USB4C031521__0__16-09-42-795.txt Node

Date: Wed May 06 16:09:42 CEST 2026
User: FIDOPA_3
Spectrometer: USB4C03152
Scans to average: 1
Trigger mode: 4
Integration Time (sec): 5.000000E-3
Electric dark correction enabled: true
Boxcar width: 0
XAxis mode: Wavelengths
Number of Pixels in Spectrum: 3648
>>>>>Begin Spectral Data<<<<<
445.929	24.06363
446.14	24.06363
446.351	24.06363
446.562	62.97504
446.773	-31.23152
446.984	-37.37543
447.194	13.82379
447.405	-8.70387
447.616	-4.60793
447.827	-23.03965
448.038	-8.70387
448.249	34.30348
448.459	9.72785
448.67	36.35145
448.881	-12.7998
449.092	-51.71121
449.303	52.7352
449.513	52.7352
449.724	52.7352
449.935	-57.85512
450.146	26.1116
450.356	15.87176
450.567	32.25551
450.778	65.02301
450.988	-37.37543
451.199	38.39941
451.41	22.01566
451.62	-16.89574
451.831	7.67988
452.042	7.67988
452.252	28.15957
452.463	-0.51199
452.674	1.53598
452.884	17.91973
453.095	42.49535
453.305	-4.60793
453.516	34.30348
453.727	-20.99168
453.937	11.77582
454.148	-0.51199
454.358	54.78316
454.569	24.06363
454.779	-2.55996
454.99	15.87176
455.2	11.77582
455.411	50.68723
455.621	-25.08762
455.832	-23.03965
456.042	-4.60793
456.253	7.67988
456.463	52.7352
456.674	-27.13559
456.884	19.9677
457.095	24.06363
457.305	32.25551
457.515	17.91973
457.726	34.30348
457.936	17.91973
458.147	19.9677
458.357	-14.84777
458.567	38.39941
458.778	42.49535
458.988	93.69457
459.198	36.35145
459.409	91.6466
459.619	58.8791
459.829	24.06363
460.039	-4.60793
460.25	-8.70387
460.46	-47.61527
460.67	81.40676
460.881	62.97504
461.091	32.25551
461.301	48.63926
461.511	19.9677
461.721	-4.60793
461.932	3.58395
462.142	7.67988
462.352	26.1116
462.562	-2.55996
462.772	50.68723
462.983	42.49535
463.193	1.53598
463.403	-8.70387
463.613	44.54332
463.823	54.78316
464.033	65.02301
464.243	11.77582
464.453	-35.32746
464.664	52.7352
464.874	11.77582
465.084	-23.03965
465.294	-12.7998
465.504	60.92707
465.714	42.49535
465.924	7.67988
466.134	79.35879
466.344	-6.6559
466.554	-23.03965
466.764	15.87176
466.974	50.68723
467.184	28.15957
467.394	-2.55996
467.604	-8.70387
467.814	-14.84777
468.024	56.83113
468.233	26.1116
468.443	15.87176
468.653	71.16691
468.863	28.15957
469.073	-6.6559
469.283	-8.70387
469.493	-29.18355
469.703	30.20754
469.912	44.54332
470.122	-20.99168
470.332	40.44738
470.542	73.21488
470.752	48.63926
470.962	42.49535
471.171	40.44738
471.381	-16.89574
471.591	95.74254
471.801	42.49535
472.01	28.15957
472.22	-8.70387
472.43	-27.13559
472.64	-14.84777
472.849	-82.43074
473.059	22.01566
473.269	-12.7998
473.478	85.5027
473.688	-31.23152
473.898	-35.32746
474.107	40.44738
474.317	-12.7998
474.527	24.06363
474.736	54.78316
474.946	46.59129
475.155	77.31082
475.365	24.06363
475.575	52.7352
475.784	48.63926
475.994	7.67988
476.203	58.8791
476.413	-8.70387
476.622	44.54332
476.832	-8.70387
477.041	77.31082
477.251	11.77582
477.46	52.7352
477.67	11.77582
477.879	42.49535
478.089	15.87176
478.298	-6.6559
478.508	77.31082
478.717	19.9677
478.927	50.68723
479.136	52.7352
479.345	44.54332
479.555	65.02301
479.764	38.39941
479.974	-10.75184
480.183	1.53598
480.392	24.06363
480.602	38.39941
480.811	32.25551
481.02	19.9677
481.23	17.91973
481.439	17.91973
481.648	19.9677
481.858	44.54332
482.067	-23.03965
482.276	40.44738
482.485	60.92707
482.695	5.63191
482.904	60.92707
483.113	15.87176
483.322	-80.38277
483.532	71.16691
483.741	-53.75918
483.95	-16.89574
484.159	46.59129
484.368	26.1116
484.577	58.8791
484.787	15.87176
484.996	-0.51199
485.205	-25.08762
485.414	79.35879
485.623	7.67988
485.832	24.06363
486.041	52.7352
486.25	-0.51199
486.459	60.92707
486.669	1.53598
486.878	32.25551
487.087	-18.94371
487.296	38.39941
487.505	48.63926
487.714	24.06363
487.923	38.39941
488.132	5.63191
488.341	75.26285
488.55	-10.75184
488.759	44.54332
488.968	62.97504
489.177	-10.75184
489.385	-43.51934
489.594	-2.55996
489.803	-12.7998
490.012	85.5027
490.221	15.87176
490.43	34.30348
490.639	42.49535
490.848	-16.89574
491.057	9.72785
491.265	48.63926
491.474	-20.99168
491.683	-2.55996
491.892	-0.51199
492.101	-10.75184
492.31	93.69457
492.518	28.15957
492.727	-6.6559
492.936	-2.55996
493.145	-25.08762
493.353	-4.60793
493.562	-12.7998
493.771	71.16691
493.98	26.1116
494.188	15.87176
494.397	85.5027
494.606	11.77582
494.814	42.49535
495.023	73.21488
495.232	19.9677
495.44	97.79051
495.649	52.7352
495.858	38.39941
496.066	56.83113
496.275	13.82379
496.483	24.06363
496.692	19.9677
496.901	54.78316
497.109	50.68723
497.318	26.1116
497.526	36.35145
497.735	34.30348
497.943	-2.55996
498.152	15.87176
498.36	48.63926
498.569	75.26285
498.777	3.58395
498.986	-49.66324
499.194	-6.6559
499.403	48.63926
499.611	-29.18355
499.82	54.78316
500.028	3.58395
500.236	38.39941
500.445	1.53598
500.653	60.92707
500.862	34.30348
501.07	54.78316
501.278	11.77582
501.487	1.53598
501.695	54.78316
501.903	-86.52668
502.112	11.77582
502.32	-35.32746
502.528	-43.51934
502.737	-8.70387
502.945	13.82379
503.153	-4.60793
503.361	-47.61527
503.57	77.31082
503.778	5.63191
503.986	38.39941
504.194	-10.75184
504.403	-47.61527
504.611	28.15957
504.819	-8.70387
505.027	40.44738
505.235	69.11895
505.443	42.49535
505.652	1.53598
505.86	9.72785
506.068	-4.60793
506.276	11.77582
506.484	40.44738
506.692	-0.51199
506.9	69.11895
507.108	22.01566
507.316	62.97504
507.524	-49.66324
507.733	1.53598
507.941	87.55066
508.149	11.77582
508.357	36.35145
508.565	-25.08762
508.773	40.44738
508.981	-14.84777
509.189	11.77582
509.397	1.53598
509.605	22.01566
509.812	-61.95105
510.02	9.72785
510.228	-12.7998
510.436	-41.47137
510.644	32.25551
510.852	32.25551
511.06	-10.75184
511.268	26.1116
511.476	15.87176
511.684	58.8791
511.891	99.83848
512.099	-14.84777
512.307	7.67988
512.515	24.06363
512.723	19.9677
512.93	-27.13559
513.138	3.58395
513.346	-10.75184
513.554	5.63191
513.761	-18.94371
513.969	17.91973
514.177	34.30348
514.385	22.01566
514.592	-4.60793
514.8	7.67988
515.008	44.54332
515.215	77.31082
515.423	65.02301
515.631	30.20754
515.838	65.02301
516.046	-23.03965
516.254	48.63926
516.461	73.21488
516.669	56.83113
516.876	7.67988
517.084	42.49535
517.292	3.58395
517.499	36.35145
517.707	-6.6559
517.914	-23.03965
518.122	24.06363
518.329	-59.90309
518.537	75.26285
518.744	52.7352
518.952	-16.89574
519.159	30.20754
519.367	15.87176
519.574	69.11895
519.782	13.82379
519.989	58.8791
520.197	1.53598
520.404	7.67988
520.611	11.77582
520.819	-49.66324
521.026	-45.5673
521.234	48.63926
521.441	40.44738
521.648	26.1116
521.856	-23.03965
522.063	-18.94371
522.27	-20.99168
522.478	-43.51934
522.685	15.87176
522.892	-59.90309
523.1	-16.89574
523.307	81.40676
523.514	-35.32746
523.721	24.06363
523.929	19.9677
524.136	9.72785
524.343	48.63926
524.55	118.2702
524.757	7.67988
524.965	11.77582
525.172	-4.60793
525.379	85.5027
525.586	-2.55996
525.793	26.1116
526	30.20754
526.208	3.58395
526.415	81.40676
526.622	7.67988
526.829	69.11895
527.036	5.63191
527.243	40.44738
527.45	-20.99168
527.657	24.06363
527.864	9.72785
528.071	42.49535
528.278	56.83113
528.485	-12.7998
528.692	30.20754
528.899	-51.71121
529.106	52.7352
529.313	-29.18355
529.52	34.30348
529.727	69.11895
529.934	-2.55996
530.141	22.01566
530.348	-10.75184
530.555	-16.89574
530.762	-12.7998
530.968	17.91973
531.175	-20.99168
531.382	-16.89574
531.589	22.01566
531.796	15.87176
532.003	48.63926
532.21	50.68723
532.416	26.1116
532.623	-4.60793
532.83	38.39941
533.037	-33.27949
533.243	-6.6559
533.45	-43.51934
533.657	24.06363
533.864	-4.60793
534.07	5.63191
534.277	62.97504
534.484	32.25551
534.691	11.77582
534.897	26.1116
535.104	-23.03965
535.311	99.83848
535.517	67.07098
535.724	-18.94371
535.93	-39.4234
536.137	67.07098
536.344	-57.85512
536.55	69.11895
536.757	40.44738
536.963	-8.70387
537.17	-33.27949
537.377	52.7352
537.583	-37.37543
537.79	26.1116
537.996	5.63191
538.203	11.77582
538.409	36.35145
538.616	-37.37543
538.822	9.72785
539.029	50.68723
539.235	87.55066
539.442	-16.89574
539.648	19.9677
539.854	13.82379
540.061	13.82379
540.267	-0.51199
540.474	26.1116
540.68	-0.51199
540.886	22.01566
541.093	46.59129
541.299	11.77582
541.505	9.72785
541.712	-2.55996
541.918	48.63926
542.124	-14.84777
542.331	19.9677
542.537	-29.18355
542.743	67.07098
542.949	-45.5673
543.156	1.53598
543.362	34.30348
543.568	52.7352
543.774	28.15957
543.981	44.54332
544.187	26.1116
544.393	22.01566
544.599	40.44738
544.805	-35.32746
545.011	36.35145
545.218	-0.51199
545.424	24.06363
545.63	5.63191
545.836	-8.70387
546.042	-10.75184
546.248	52.7352
546.454	24.06363
546.66	-8.70387
546.866	-47.61527
547.072	15.87176
547.278	7.67988
547.484	13.82379
547.69	3.58395
547.896	5.63191
548.102	-20.99168
548.308	19.9677
548.514	7.67988
548.72	-33.27949
548.926	58.8791
549.132	-35.32746
549.338	-4.60793
549.544	24.06363
549.75	44.54332
549.956	-0.51199
550.162	34.30348
550.368	30.20754
550.574	7.67988
550.779	-4.60793
550.985	-49.66324
551.191	-68.09496
551.397	65.02301
551.603	75.26285
551.808	50.68723
552.014	-25.08762
552.22	-31.23152
552.426	-16.89574
552.632	-47.61527
552.837	13.82379
553.043	-12.7998
553.249	22.01566
553.454	3.58395
553.66	32.25551
553.866	87.55066
554.071	-8.70387
554.277	-18.94371
554.483	7.67988
554.688	32.25551
554.894	46.59129
555.1	32.25551
555.305	15.87176
555.511	-20.99168
555.716	28.15957
555.922	1.53598
556.128	48.63926
556.333	77.31082
556.539	40.44738
556.744	87.55066
556.95	7.67988
557.155	58.8791
557.361	22.01566
557.566	36.35145
557.772	15.87176
557.977	-4.60793
558.183	9.72785
558.388	42.49535
558.594	36.35145
558.799	24.06363
559.004	17.91973
559.21	13.82379
559.415	54.78316
559.621	81.40676
559.826	28.15957
560.031	75.26285
560.237	19.9677
560.442	15.87176
560.647	48.63926
560.853	-31.23152
561.058	65.02301
561.263	56.83113
561.468	-8.70387
561.674	69.11895
561.879	65.02301
562.084	56.83113
562.289	-0.51199
562.495	-6.6559
562.7	17.91973
562.905	50.68723
563.11	81.40676
563.315	50.68723
563.521	15.87176
563.726	128.51004
563.931	9.72785
564.136	34.30348
564.341	28.15957
564.546	-27.13559
564.751	58.8791
564.956	85.5027
565.162	32.25551
565.367	-45.5673
565.572	-29.18355
565.777	58.8791
565.982	50.68723
566.187	89.59863
566.392	-20.99168
566.597	46.59129
566.802	34.30348
567.007	5.63191
567.212	1.53598
567.417	3.58395
567.622	54.78316
567.827	11.77582
568.031	9.72785
568.236	46.59129
568.441	-16.89574
568.646	89.59863
568.851	81.40676
569.056	32.25551
569.261	71.16691
569.466	54.78316
569.67	73.21488
569.875	69.11895
570.08	-23.03965
570.285	-18.94371
570.49	24.06363
570.694	-10.75184
570.899	-2.55996
571.104	46.59129
571.309	-35.32746
571.513	-18.94371
571.718	30.20754
571.923	-0.51199
572.128	-76.28684
572.332	89.59863
572.537	42.49535
572.742	5.63191
572.946	28.15957
573.151	15.87176
573.355	15.87176
573.56	65.02301
573.765	130.55801
573.969	36.35145
574.174	34.30348
574.378	-41.47137
574.583	36.35145
574.788	3.58395
574.992	-25.08762
575.197	44.54332
575.401	75.26285
575.606	-23.03965
575.81	56.83113
576.015	34.30348
576.219	26.1116
576.424	11.77582
576.628	67.07098
576.832	-6.6559
577.037	46.59129
577.241	11.77582
577.446	19.9677
577.65	83.45473
577.854	-31.23152
578.059	9.72785
578.263	67.07098
578.467	11.77582
578.672	58.8791
578.876	13.82379
579.08	42.49535
579.285	19.9677
579.489	15.87176
579.693	-12.7998
579.898	103.93441
580.102	75.26285
580.306	52.7352
580.51	42.49535
580.715	-29.18355
580.919	13.82379
581.123	42.49535
581.327	91.6466
581.531	-25.08762
581.735	52.7352
581.94	-37.37543
582.144	-4.60793
582.348	-8.70387
582.552	-4.60793
582.756	-27.13559
582.96	-31.23152
583.164	5.63191
583.368	-18.94371
583.572	83.45473
583.776	101.88645
583.98	30.20754
584.185	-6.6559
584.389	3.58395
584.593	3.58395
584.797	-0.51199
585	1.53598
585.204	11.77582
585.408	28.15957
585.612	36.35145
585.816	28.15957
586.02	15.87176
586.224	44.54332
586.428	7.67988
586.632	28.15957
586.836	87.55066
587.04	40.44738
587.244	7.67988
587.447	67.07098
587.651	93.69457
587.855	-4.60793
588.059	30.20754
588.263	65.02301
588.466	-23.03965
588.67	-10.75184
588.874	54.78316
589.078	38.39941
589.281	7.67988
589.485	-4.60793
589.689	11.77582
589.893	-20.99168
590.096	22.01566
590.3	-2.55996
590.504	-12.7998
590.707	24.06363
590.911	7.67988
591.115	-68.09496
591.318	44.54332
591.522	52.7352
591.725	13.82379
591.929	11.77582
592.133	3.58395
592.336	13.82379
592.54	-98.81449
592.743	58.8791
592.947	30.20754
593.15	28.15957
593.354	-6.6559
593.557	71.16691
593.761	17.91973
593.964	3.58395
594.168	5.63191
594.371	-43.51934
594.575	22.01566
594.778	-57.85512
594.981	11.77582
595.185	5.63191
595.388	56.83113
595.592	9.72785
595.795	-33.27949
595.998	24.06363
596.202	-35.32746
596.405	-25.08762
596.608	30.20754
596.812	-31.23152
597.015	65.02301
597.218	-16.89574
597.421	3.58395
597.625	44.54332
597.828	54.78316
598.031	48.63926
598.234	1.53598
598.438	13.82379
598.641	48.63926
598.844	32.25551
599.047	69.11895
599.25	62.97504
599.453	13.82379
599.657	28.15957
599.86	11.77582
600.063	-16.89574
600.266	83.45473
600.469	28.15957
600.672	-4.60793
600.875	36.35145
601.078	73.21488
601.281	42.49535
601.484	-59.90309
601.687	32.25551
601.89	34.30348
602.093	9.72785
602.296	-39.4234
602.499	81.40676
602.702	97.79051
602.905	67.07098
603.108	34.30348
603.311	-4.60793
603.514	17.91973
603.717	9.72785
603.92	26.1116
604.123	11.77582
604.326	-10.75184
604.529	60.92707
604.731	-49.66324
604.934	-12.7998
605.137	-6.6559
605.34	34.30348
605.543	101.88645
605.745	9.72785
605.948	81.40676
606.151	30.20754
606.354	42.49535
606.557	71.16691
606.759	58.8791
606.962	-10.75184
607.165	-16.89574
607.367	30.20754
607.57	40.44738
607.773	3.58395
607.975	3.58395
608.178	3.58395
608.381	-41.47137
608.583	36.35145
608.786	-8.70387
608.989	42.49535
609.191	-29.18355
609.394	22.01566
609.596	62.97504
609.799	93.69457
610.001	3.58395
610.204	54.78316
610.406	3.58395
610.609	-35.32746
610.811	69.11895
611.014	-8.70387
611.216	-14.84777
611.419	-43.51934
611.621	36.35145
611.824	24.06363
612.026	28.15957
612.229	73.21488
612.431	11.77582
612.633	36.35145
612.836	30.20754
613.038	40.44738
613.24	26.1116
613.443	5.63191
613.645	3.58395
613.847	-18.94371
614.05	65.02301
614.252	17.91973
614.454	71.16691
614.657	93.69457
614.859	11.77582
615.061	36.35145
615.263	30.20754
615.466	-20.99168
615.668	38.39941
615.87	9.72785
616.072	-57.85512
616.274	-2.55996
616.476	99.83848
616.679	-51.71121
616.881	30.20754
617.083	34.30348
617.285	1.53598
617.487	26.1116
617.689	11.77582
617.891	42.49535
618.093	-8.70387
618.295	36.35145
618.497	-16.89574
618.699	30.20754
618.901	13.82379
619.103	-2.55996
619.305	-8.70387
619.507	-0.51199
619.709	62.97504
619.911	3.58395
620.113	-2.55996
620.315	13.82379
620.517	-31.23152
620.719	91.6466
620.921	24.06363
621.123	-6.6559
621.325	3.58395
621.527	-2.55996
621.728	67.07098
621.93	5.63191
622.132	56.83113
622.334	89.59863
622.536	19.9677
622.737	34.30348
622.939	24.06363
623.141	-20.99168
623.343	79.35879
623.544	9.72785
623.746	-10.75184
623.948	81.40676
624.15	67.07098
624.351	13.82379
624.553	77.31082
624.755	46.59129
624.956	-18.94371
625.158	24.06363
625.36	-10.75184
625.561	-14.84777
625.763	13.82379
625.964	52.7352
626.166	71.16691
626.367	-31.23152
626.569	46.59129
626.771	28.15957
626.972	-16.89574
627.174	46.59129
627.375	67.07098
627.577	54.78316
627.778	-6.6559
627.98	60.92707
628.181	-18.94371
628.382	-18.94371
628.584	-25.08762
628.785	-12.7998
628.987	71.16691
629.188	62.97504
629.39	-2.55996
629.591	-0.51199
629.792	-20.99168
629.994	19.9677
630.195	52.7352
630.396	89.59863
630.598	60.92707
630.799	69.11895
631	30.20754
631.201	60.92707
631.403	140.79785
631.604	202.23691
631.805	247.29223
632.006	222.7166
632.208	267.77191
632.409	120.31816
632.61	52.7352
632.811	34.30348
633.012	60.92707
633.214	9.72785
633.415	-2.55996
633.616	32.25551
633.817	65.02301
634.018	58.8791
634.219	26.1116
634.42	58.8791
634.621	-16.89574
634.822	36.35145
635.023	75.26285
635.224	-0.51199
635.425	-76.28684
635.626	-14.84777
635.827	46.59129
636.028	-10.75184
636.229	22.01566
636.43	95.74254
636.631	-8.70387
636.832	15.87176
637.033	5.63191
637.234	11.77582
637.435	-12.7998
637.636	-0.51199
637.837	-6.6559
638.037	40.44738
638.238	73.21488
638.439	17.91973
638.64	28.15957
638.841	13.82379
639.042	3.58395
639.242	17.91973
639.443	38.39941
639.644	7.67988
639.845	-8.70387
640.045	-59.90309
640.246	17.91973
640.447	38.39941
640.648	1.53598
640.848	7.67988
641.049	40.44738
641.25	40.44738
641.45	32.25551
641.651	-27.13559
641.851	7.67988
642.052	15.87176
642.253	1.53598
642.453	11.77582
642.654	17.91973
642.854	65.02301
643.055	-2.55996
643.255	19.9677
643.456	73.21488
643.656	56.83113
643.857	73.21488
644.057	69.11895
644.258	1.53598
644.458	42.49535
644.659	56.83113
644.859	81.40676
645.06	-33.27949
645.26	-4.60793
645.46	54.78316
645.661	-4.60793
645.861	-6.6559
646.062	9.72785
646.262	81.40676
646.462	-10.75184
646.663	26.1116
646.863	5.63191
647.063	75.26285
647.263	-0.51199
647.464	38.39941
647.664	-63.99902
647.864	-16.89574
648.064	15.87176
648.265	-10.75184
648.465	110.07832
648.665	114.17426
648.865	77.31082
649.065	52.7352
649.266	-35.32746
649.466	9.72785
649.666	28.15957
649.866	50.68723
650.066	-61.95105
650.266	75.26285
650.466	19.9677
650.666	-31.23152
650.866	122.36613
651.067	36.35145
651.267	15.87176
651.467	30.20754
651.667	-51.71121
651.867	-16.89574
652.067	-4.60793
652.267	19.9677
652.466	62.97504
652.666	-4.60793
652.866	-80.38277
653.066	-2.55996
653.266	11.77582
653.466	28.15957
653.666	3.58395
653.866	48.63926
654.066	7.67988
654.266	46.59129
654.465	-20.99168
654.665	-53.75918
654.865	15.87176
655.065	15.87176
655.265	38.39941
655.464	5.63191
655.664	52.7352
655.864	-16.89574
656.064	-20.99168
656.263	22.01566
656.463	73.21488
656.663	7.67988
656.862	83.45473
657.062	34.30348
657.262	13.82379
657.461	-6.6559
657.661	19.9677
657.861	-35.32746
658.06	52.7352
658.26	-66.04699
658.459	-2.55996
658.659	-10.75184
658.858	36.35145
659.058	44.54332
659.258	-37.37543
659.457	73.21488
659.657	-2.55996
659.856	13.82379
660.056	3.58395
660.255	3.58395
660.454	-31.23152
660.654	1.53598
660.853	1.53598
661.053	87.55066
661.252	22.01566
661.452	22.01566
661.651	-33.27949
661.85	-8.70387
662.05	-25.08762
662.249	-66.04699
662.448	-4.60793
662.648	-0.51199
662.847	13.82379
663.046	-43.51934
663.245	1.53598
663.445	-43.51934
663.644	17.91973
663.843	30.20754
664.042	-18.94371
664.242	26.1116
664.441	-57.85512
664.64	-10.75184
664.839	-18.94371
665.038	13.82379
665.237	15.87176
665.437	19.9677
665.636	-2.55996
665.835	26.1116
666.034	-14.84777
666.233	67.07098
666.432	15.87176
666.631	3.58395
666.83	-2.55996
667.029	15.87176
667.228	-29.18355
667.427	28.15957
667.626	28.15957
667.825	44.54332
668.024	75.26285
668.223	91.6466
668.422	7.67988
668.621	-20.99168
668.82	67.07098
669.019	69.11895
669.218	28.15957
669.417	44.54332
669.615	11.77582
669.814	32.25551
670.013	77.31082
670.212	-49.66324
670.411	44.54332
670.609	83.45473
670.808	48.63926
671.007	11.77582
671.206	34.30348
671.405	44.54332
671.603	58.8791
671.802	44.54332
672.001	38.39941
672.199	-4.60793
672.398	56.83113
672.597	-18.94371
672.795	15.87176
672.994	40.44738
673.193	-4.60793
673.391	42.49535
673.59	93.69457
673.789	62.97504
673.987	1.53598
674.186	42.49535
674.384	108.03035
674.583	46.59129
674.781	15.87176
674.98	-10.75184
675.178	58.8791
675.377	3.58395
675.575	19.9677
675.774	114.17426
675.972	46.59129
676.171	-16.89574
676.369	19.9677
676.567	-41.47137
676.766	19.9677
676.964	28.15957
677.163	11.77582
677.361	75.26285
677.559	54.78316
677.758	15.87176
677.956	30.20754
678.154	-41.47137
678.353	48.63926
678.551	11.77582
678.749	-6.6559
678.947	36.35145
679.146	24.06363
679.344	114.17426
679.542	15.87176
679.74	15.87176
679.938	13.82379
680.137	26.1116
680.335	42.49535
680.533	24.06363
680.731	69.11895
680.929	32.25551
681.127	36.35145
681.325	28.15957
681.523	38.39941
681.721	65.02301
681.92	97.79051
682.118	22.01566
682.316	42.49535
682.514	38.39941
682.712	38.39941
682.91	48.63926
683.108	56.83113
683.306	-35.32746
683.504	58.8791
683.701	38.39941
683.899	24.06363
684.097	7.67988
684.295	91.6466
684.493	-4.60793
684.691	95.74254
684.889	73.21488
685.087	52.7352
685.284	-8.70387
685.482	65.02301
685.68	-55.80715
685.878	-57.85512
686.076	40.44738
686.273	-43.51934
686.471	1.53598
686.669	-12.7998
686.867	15.87176
687.064	-27.13559
687.262	48.63926
687.46	22.01566
687.657	44.54332
687.855	28.15957
688.053	30.20754
688.25	11.77582
688.448	-45.5673
688.646	48.63926
688.843	1.53598
689.041	-16.89574
689.238	81.40676
689.436	15.87176
689.633	11.77582
689.831	46.59129
690.029	56.83113
690.226	65.02301
690.424	-33.27949
690.621	15.87176
690.818	85.5027
691.016	44.54332
691.213	52.7352
691.411	-8.70387
691.608	42.49535
691.806	-8.70387
692.003	-25.08762
692.2	122.36613
692.398	83.45473
692.595	36.35145
692.792	1.53598
692.99	54.78316
693.187	26.1116
693.384	69.11895
693.582	-37.37543
693.779	69.11895
693.976	42.49535
694.173	44.54332
694.371	83.45473
694.568	19.9677
694.765	28.15957
694.962	36.35145
695.159	-33.27949
695.356	15.87176
695.554	89.59863
695.751	30.20754
695.948	83.45473
696.145	13.82379
696.342	48.63926
696.539	62.97504
696.736	-25.08762
696.933	44.54332
697.13	15.87176
697.327	93.69457
697.524	13.82379
697.721	34.30348
697.918	32.25551
698.115	24.06363
698.312	54.78316
698.509	15.87176
698.706	81.40676
698.903	11.77582
699.1	24.06363
699.297	-66.04699
699.494	3.58395
699.691	-18.94371
699.887	7.67988
700.084	60.92707
700.281	17.91973
700.478	32.25551
700.675	44.54332
700.871	44.54332
701.068	-47.61527
701.265	-20.99168
701.462	-0.51199
701.658	-27.13559
701.855	77.31082
702.052	-6.6559
702.249	26.1116
702.445	15.87176
702.642	34.30348
702.839	81.40676
703.035	-0.51199
703.232	-10.75184
703.428	22.01566
703.625	-20.99168
703.822	3.58395
704.018	9.72785
704.215	11.77582
704.411	46.59129
704.608	17.91973
704.804	13.82379
705.001	95.74254
705.197	62.97504
705.394	69.11895
705.59	58.8791
705.787	73.21488
705.983	60.92707
706.18	38.39941
706.376	7.67988
706.572	34.30348
706.769	50.68723
706.965	65.02301
707.161	19.9677
707.358	-0.51199
707.554	50.68723
707.75	40.44738
707.947	-2.55996
708.143	42.49535
708.339	50.68723
708.536	50.68723
708.732	50.68723
708.928	-51.71121
709.124	3.58395
709.32	-20.99168
709.517	60.92707
709.713	24.06363
709.909	42.49535
710.105	3.58395
710.301	101.88645
710.497	50.68723
710.693	-10.75184
710.89	-14.84777
711.086	67.07098
711.282	15.87176
711.478	32.25551
711.674	30.20754
711.87	81.40676
712.066	60.92707
712.262	30.20754
712.458	-0.51199
712.654	36.35145
712.85	-45.5673
713.046	11.77582
713.242	-74.23887
713.438	-12.7998
713.633	17.91973
713.829	26.1116
714.025	83.45473
714.221	-31.23152
714.417	17.91973
714.613	56.83113
714.809	56.83113
715.004	19.9677
715.2	22.01566
715.396	91.6466
715.592	-4.60793
715.788	65.02301
715.983	-33.27949
716.179	-33.27949
716.375	-8.70387
716.57	28.15957
716.766	40.44738
716.962	-14.84777
717.157	-37.37543
717.353	50.68723
717.549	11.77582
717.744	19.9677
717.94	79.35879
718.136	-18.94371
718.331	9.72785
718.527	60.92707
718.722	15.87176
718.918	52.7352
719.113	38.39941
719.309	44.54332
719.504	73.21488
719.7	-41.47137
719.895	30.20754
720.091	69.11895
720.286	65.02301
720.482	-25.08762
720.677	71.16691
720.872	34.30348
721.068	3.58395
721.263	-33.27949
721.458	87.55066
721.654	3.58395
721.849	42.49535
722.044	-57.85512
722.24	-0.51199
722.435	85.5027
722.63	-27.13559
722.826	26.1116
723.021	-2.55996
723.216	11.77582
723.411	69.11895
723.606	32.25551
723.802	15.87176
723.997	-16.89574
724.192	-41.47137
724.387	-8.70387
724.582	-0.51199
724.777	-10.75184
724.973	-16.89574
725.168	54.78316
725.363	54.78316
725.558	-23.03965
725.753	32.25551
725.948	122.36613
726.143	99.83848
726.338	-70.14293
726.533	83.45473
726.728	3.58395
726.923	15.87176
727.118	-6.6559
727.313	48.63926
727.508	-12.7998
727.703	-2.55996
727.897	26.1116
728.092	77.31082
728.287	-6.6559
728.482	-4.60793
728.677	24.06363
728.872	-12.7998
729.067	65.02301
729.261	91.6466
729.456	5.63191
729.651	-31.23152
729.846	19.9677
730.04	40.44738
730.235	19.9677
730.43	-25.08762
730.625	15.87176
730.819	-4.60793
731.014	30.20754
731.209	40.44738
731.403	83.45473
731.598	-14.84777
731.793	7.67988
731.987	17.91973
732.182	17.91973
732.376	34.30348
732.571	46.59129
732.765	1.53598
732.96	36.35145
733.155	30.20754
733.349	-25.08762
733.544	54.78316
733.738	42.49535
733.932	-18.94371
734.127	-61.95105
734.321	99.83848
734.516	-45.5673
734.71	-12.7998
734.905	26.1116
735.099	15.87176
735.293	40.44738
735.488	54.78316
735.682	-8.70387
735.876	40.44738
736.071	46.59129
736.265	-39.4234
736.459	5.63191
736.654	-33.27949
736.848	48.63926
737.042	60.92707
737.236	91.6466
737.431	46.59129
737.625	38.39941
737.819	-66.04699
738.013	44.54332
738.207	32.25551
738.401	46.59129
738.596	7.67988
738.79	13.82379
738.984	30.20754
739.178	7.67988
739.372	11.77582
739.566	-4.60793
739.76	-14.84777
739.954	17.91973
740.148	34.30348
740.342	60.92707
740.536	5.63191
740.73	-18.94371
740.924	-43.51934
741.118	46.59129
741.312	81.40676
741.506	24.06363
741.7	32.25551
741.894	-53.75918
742.087	15.87176
742.281	56.83113
742.475	15.87176
742.669	-10.75184
742.863	-6.6559
743.057	75.26285
743.25	28.15957
743.444	54.78316
743.638	-23.03965
743.832	60.92707
744.025	9.72785
744.219	9.72785
744.413	83.45473
744.607	69.11895
744.8	-12.7998
744.994	17.91973
745.188	-47.61527
745.381	-29.18355
745.575	-4.60793
745.768	48.63926
745.962	32.25551
746.156	34.30348
746.349	38.39941
746.543	-53.75918
746.736	-2.55996
746.93	24.06363
747.123	-4.60793
747.317	-31.23152
747.51	32.25551
747.704	5.63191
747.897	-33.27949
748.091	56.83113
748.284	-90.62262
748.478	-53.75918
748.671	-16.89574
748.864	48.63926
749.058	30.20754
749.251	-37.37543
749.444	42.49535
749.638	28.15957
749.831	34.30348
750.024	69.11895
750.218	-2.55996
750.411	3.58395
750.604	62.97504
750.797	13.82379
750.991	11.77582
751.184	32.25551
751.377	-2.55996
751.57	-16.89574
751.763	-31.23152
751.956	-0.51199
752.15	34.30348
752.343	-10.75184
752.536	1.53598
752.729	-41.47137
752.922	69.11895
753.115	24.06363
753.308	-12.7998
753.501	85.5027
753.694	-63.99902
753.887	-4.60793
754.08	7.67988
754.273	36.35145
754.466	85.5027
754.659	11.77582
754.852	56.83113
755.045	42.49535
755.238	-14.84777
755.431	48.63926
755.624	15.87176
755.817	75.26285
756.009	-6.6559
756.202	15.87176
756.395	-0.51199
756.588	-33.27949
756.781	1.53598
756.973	5.63191
757.166	-0.51199
757.359	-37.37543
757.552	71.16691
757.744	54.78316
757.937	62.97504
758.13	44.54332
758.322	11.77582
758.515	17.91973
758.708	-33.27949
758.9	101.88645
759.093	15.87176
759.286	40.44738
759.478	22.01566
759.671	50.68723
759.863	77.31082
760.056	15.87176
760.248	50.68723
760.441	-18.94371
760.633	11.77582
760.826	36.35145
761.018	34.30348
761.211	-10.75184
761.403	1.53598
761.596	-14.84777
761.788	40.44738
761.981	87.55066
762.173	67.07098
762.365	52.7352
762.558	-16.89574
762.75	60.92707
762.942	-12.7998
763.135	1.53598
763.327	17.91973
763.519	-14.84777
763.712	26.1116
763.904	3.58395
764.096	-43.51934
764.288	32.25551
764.481	19.9677
764.673	5.63191
764.865	-6.6559
765.057	24.06363
765.249	-4.60793
765.441	44.54332
765.634	46.59129
765.826	-33.27949
766.018	-4.60793
766.21	44.54332
766.402	-27.13559
766.594	-25.08762
766.786	62.97504
766.978	38.39941
767.17	81.40676
767.362	9.72785
767.554	-4.60793
767.746	24.06363
767.938	-0.51199
768.13	15.87176
768.322	-14.84777
768.514	3.58395
768.706	26.1116
768.898	-8.70387
769.089	-61.95105
769.281	5.63191
769.473	-23.03965
769.665	54.78316
769.857	32.25551
770.049	52.7352
770.24	42.49535
770.432	30.20754
770.624	50.68723
770.816	-4.60793
771.007	-12.7998
771.199	79.35879
771.391	34.30348
771.582	-4.60793
771.774	46.59129
771.966	-4.60793
772.157	-68.09496
772.349	15.87176
772.541	26.1116
772.732	46.59129
772.924	-66.04699
773.115	1.53598
773.307	-0.51199
773.498	7.67988
773.69	-10.75184
773.881	69.11895
774.073	1.53598
774.264	5.63191
774.456	81.40676
774.647	48.63926
774.839	22.01566
775.03	40.44738
775.221	36.35145
775.413	48.63926
775.604	-31.23152
775.796	65.02301
775.987	-35.32746
776.178	-61.95105
776.37	-2.55996
776.561	71.16691
776.752	-29.18355
776.943	22.01566
777.135	-4.60793
777.326	38.39941
777.517	28.15957
777.708	-8.70387
777.899	60.92707
778.091	-4.60793
778.282	-12.7998
778.473	32.25551
778.664	-25.08762
778.855	-29.18355
779.046	28.15957
779.237	69.11895
779.428	5.63191
779.62	34.30348
779.811	38.39941
780.002	-8.70387
780.193	9.72785
780.384	75.26285
780.575	13.82379
780.766	42.49535
780.957	-57.85512
781.148	54.78316
781.338	65.02301
781.529	7.67988
781.72	9.72785
781.911	5.63191
782.102	44.54332
782.293	52.7352
782.484	-6.6559
782.674	46.59129
782.865	28.15957
783.056	36.35145
783.247	5.63191
783.438	22.01566
783.628	93.69457
783.819	19.9677
784.01	26.1116
784.201	40.44738
784.391	-10.75184
784.582	13.82379
784.773	-12.7998
784.963	60.92707
785.154	-31.23152
785.344	32.25551
785.535	97.79051
785.726	56.83113
785.916	-25.08762
786.107	11.77582
786.297	1.53598
786.488	-41.47137
786.678	-29.18355
786.869	60.92707
787.059	11.77582
787.25	60.92707
787.44	50.68723
787.631	36.35145
787.821	-0.51199
788.012	40.44738
788.202	30.20754
788.392	-25.08762
788.583	-14.84777
788.773	7.67988
788.963	67.07098
789.154	-4.60793
789.344	56.83113
789.534	77.31082
789.724	9.72785
789.915	42.49535
790.105	65.02301
790.295	-74.23887
790.485	15.87176
790.676	-10.75184
790.866	-12.7998
791.056	-2.55996
791.246	50.68723
791.436	-35.32746
791.626	58.8791
791.816	32.25551
792.007	-41.47137
792.197	52.7352
792.387	36.35145
792.577	9.72785
792.767	9.72785
792.957	9.72785
793.147	103.93441
793.337	17.91973
793.527	-8.70387
793.717	-8.70387
793.907	11.77582
794.097	17.91973
794.287	1.53598
794.476	42.49535
794.666	24.06363
794.856	-8.70387
795.046	9.72785
795.236	69.11895
795.426	-49.66324
795.615	75.26285
795.805	-25.08762
795.995	36.35145
796.185	9.72785
796.375	-20.99168
796.564	50.68723
796.754	-20.99168
796.944	50.68723
797.133	22.01566
797.323	-29.18355
797.513	7.67988
797.702	42.49535
797.892	75.26285
798.082	44.54332
798.271	54.78316
798.461	9.72785
798.65	-25.08762
798.84	-39.4234
799.029	-27.13559
799.219	58.8791
799.408	77.31082
799.598	-16.89574
799.787	-2.55996
799.977	9.72785
800.166	-37.37543
800.356	3.58395
800.545	-27.13559
800.735	-23.03965
800.924	-2.55996
801.113	-0.51199
801.303	54.78316
801.492	-31.23152
801.681	-25.08762
801.871	-31.23152
802.06	-29.18355
802.249	24.06363
802.438	-0.51199
802.628	-20.99168
802.817	46.59129
803.006	28.15957
803.195	5.63191
803.385	-4.60793
803.574	69.11895
803.763	-4.60793
803.952	54.78316
804.141	24.06363
804.33	9.72785
804.519	3.58395
804.708	9.72785
804.897	22.01566
805.087	-29.18355
805.276	32.25551
805.465	-16.89574
805.654	44.54332
805.843	19.9677
806.032	24.06363
806.22	26.1116
806.409	46.59129
806.598	17.91973
806.787	15.87176
806.976	34.30348
807.165	-16.89574
807.354	81.40676
807.543	19.9677
807.732	17.91973
807.92	-39.4234
808.109	93.69457
808.298	-39.4234
808.487	-25.08762
808.676	36.35145
808.864	30.20754
809.053	-31.23152
809.242	19.9677
809.43	-10.75184
809.619	38.39941
809.808	-53.75918
809.996	5.63191
810.185	71.16691
810.374	5.63191
810.562	-51.71121
810.751	26.1116
810.939	32.25551
811.128	-37.37543
811.317	-2.55996
811.505	15.87176
811.694	-16.89574
811.882	11.77582
812.071	26.1116
812.259	22.01566
812.448	-49.66324
812.636	77.31082
812.824	36.35145
813.013	-6.6559
813.201	11.77582
813.39	1.53598
813.578	-31.23152
813.766	40.44738
813.955	44.54332
814.143	40.44738
814.331	85.5027
814.519	44.54332
814.708	7.67988
814.896	-20.99168
815.084	7.67988
815.272	-37.37543
815.461	17.91973
815.649	44.54332
815.837	24.06363
816.025	28.15957
816.213	9.72785
816.401	69.11895
816.59	26.1116
816.778	56.83113
816.966	-6.6559
817.154	-4.60793
817.342	7.67988
817.53	5.63191
817.718	-8.70387
817.906	11.77582
818.094	62.97504
818.282	19.9677
818.47	69.11895
818.658	-61.95105
818.846	-43.51934
819.034	48.63926
819.222	-10.75184
819.409	-33.27949
819.597	50.68723
819.785	28.15957
819.973	67.07098
820.161	-4.60793
820.349	32.25551
820.536	-6.6559
820.724	50.68723
820.912	-0.51199
821.1	28.15957
821.287	122.36613
821.475	69.11895
821.663	58.8791
821.85	15.87176
822.038	-70.14293
822.226	-0.51199
822.413	13.82379
822.601	-10.75184
822.789	32.25551
822.976	-16.89574
823.164	-43.51934
823.351	48.63926
823.539	71.16691
823.726	17.91973
823.914	-25.08762
824.101	-49.66324
824.289	58.8791
824.476	13.82379
824.664	28.15957
824.851	-16.89574
825.039	1.53598
825.226	-6.6559
825.413	19.9677
825.601	26.1116
825.788	11.77582
825.976	46.59129
826.163	65.02301
826.35	-4.60793
826.537	32.25551
826.725	-27.13559
826.912	11.77582
827.099	36.35145
827.286	-16.89574
827.474	-14.84777
827.661	-47.61527
827.848	62.97504
828.035	40.44738
828.222	-12.7998
828.409	46.59129
828.597	32.25551
828.784	65.02301
828.971	-8.70387
829.158	50.68723
829.345	34.30348
829.532	36.35145
829.719	32.25551
829.906	28.15957
830.093	-8.70387
830.28	65.02301
830.467	30.20754
830.654	-51.71121
830.841	7.67988
831.028	-12.7998
831.215	67.07098
831.402	-16.89574
831.588	11.77582
831.775	11.77582
831.962	40.44738
832.149	7.67988
832.336	-0.51199
832.522	48.63926
832.709	-29.18355
832.896	-31.23152
833.083	32.25551
833.269	42.49535
833.456	50.68723
833.643	32.25551
833.83	-43.51934
834.016	50.68723
834.203	-4.60793
834.39	1.53598
834.576	-61.95105
834.763	54.78316
834.949	-0.51199
835.136	-8.70387
835.322	24.06363
835.509	7.67988
835.695	17.91973
835.882	65.02301
836.068	-4.60793
836.255	-29.18355
836.441	50.68723
836.628	-6.6559
836.814	97.79051
837.001	24.06363
837.187	-92.67059
837.373	3.58395
837.56	46.59129
837.746	19.9677
837.933	38.39941
838.119	58.8791
838.305	17.91973
838.491	73.21488
838.678	44.54332
838.864	-53.75918
839.05	77.31082
839.236	40.44738
839.423	-33.27949
839.609	17.91973
839.795	24.06363
839.981	15.87176
840.167	101.88645
840.353	-18.94371
840.54	9.72785
840.726	7.67988
840.912	-37.37543
841.098	67.07098
841.284	-43.51934
841.47	32.25551
841.656	44.54332
841.842	-25.08762
842.028	15.87176
842.214	69.11895
842.4	50.68723
842.586	85.5027
842.772	65.02301
842.958	-35.32746
843.143	73.21488
843.329	38.39941
843.515	-14.84777
843.701	19.9677
843.887	5.63191
844.073	22.01566
844.258	-6.6559
844.444	36.35145
844.63	1.53598
844.816	36.35145
845.001	-41.47137
845.187	19.9677
845.373	38.39941
845.559	36.35145
845.744	42.49535
845.93	3.58395
846.115	-49.66324
846.301	32.25551
846.487	-25.08762
846.672	52.7352
846.858	54.78316
847.043	38.39941
847.229	30.20754
847.414	-31.23152
847.6	13.82379
847.785	-33.27949
847.971	28.15957
848.156	-10.75184
848.342	-10.75184
848.527	-43.51934
848.713	19.9677
848.898	-94.71855
849.083	-55.80715
849.269	3.58395
849.454	32.25551
849.639	-0.51199
849.825	44.54332
850.01	-23.03965
850.195	-27.13559
850.381	-8.70387
850.566	-6.6559
850.751	24.06363
850.936	26.1116
851.122	99.83848
851.307	7.67988
851.492	34.30348
851.677	81.40676
851.862	60.92707
852.047	-4.60793
852.232	3.58395
852.417	38.39941
852.603	108.03035
852.788	-25.08762
852.973	19.9677
853.158	26.1116
853.343	46.59129
853.528	34.30348
853.713	-8.70387
853.898	36.35145
854.083	36.35145
854.267	42.49535
854.452	22.01566
854.637	-45.5673
854.822	30.20754
855.007	-0.51199
855.192	44.54332
855.377	5.63191
855.562	-16.89574
855.746	-2.55996
855.931	22.01566
856.116	24.06363
856.301	54.78316
856.485	-10.75184
856.67	-8.70387
856.855	-98.81449
857.039	3.58395
857.224	-16.89574
857.409	32.25551
857.593	48.63926
857.778	40.44738
857.963	5.63191
858.147	-0.51199
858.332	-6.6559
858.516	19.9677
858.701	48.63926
858.885	60.92707
859.07	24.06363
859.254	85.5027
859.439	-33.27949
859.623	48.63926
859.808	52.7352
859.992	36.35145
860.177	-43.51934
860.361	-10.75184
860.545	26.1116
860.73	54.78316
860.914	-25.08762
861.098	26.1116
861.283	7.67988
861.467	48.63926
861.651	-14.84777
861.836	42.49535
862.02	15.87176
862.204	-12.7998
862.388	-23.03965
862.572	-14.84777
862.757	73.21488
862.941	-49.66324
863.125	15.87176
863.309	153.08566
863.493	44.54332
863.677	48.63926
863.861	-70.14293
864.045	28.15957
864.23	13.82379
864.414	5.63191
864.598	-0.51199
864.782	71.16691
864.966	-14.84777
865.15	28.15957
865.334	48.63926
865.517	52.7352
865.701	13.82379
865.885	40.44738
866.069	34.30348
866.253	-86.52668
866.437	-25.08762
866.621	-14.84777
866.805	-35.32746
866.988	65.02301
867.172	1.53598
867.356	69.11895
867.54	101.88645
867.723	19.9677
867.907	19.9677
868.091	75.26285
868.275	-2.55996
868.458	81.40676
868.642	15.87176
868.826	46.59129
869.009	22.01566
869.193	-14.84777
869.376	13.82379
869.56	48.63926
869.744	-8.70387
869.927	-14.84777
870.111	52.7352
870.294	-4.60793
870.478	-12.7998
870.661	22.01566
870.845	46.59129
871.028	9.72785
871.211	69.11895
871.395	42.49535
871.578	-23.03965
871.762	3.58395
871.945	65.02301
872.128	9.72785
872.312	3.58395
872.495	75.26285
872.678	52.7352
872.862	67.07098
873.045	-43.51934
873.228	24.06363
873.411	9.72785
873.595	-27.13559
873.778	22.01566
873.961	-6.6559
874.144	22.01566
874.327	5.63191
874.51	17.91973
874.694	52.7352
874.877	-8.70387
875.06	-23.03965
875.243	-31.23152
875.426	3.58395
875.609	22.01566
875.792	32.25551
875.975	-25.08762
876.158	50.68723
876.341	48.63926
876.524	34.30348
876.707	42.49535
876.89	44.54332
877.073	65.02301
877.255	40.44738
877.438	-41.47137
877.621	13.82379
877.804	30.20754
877.987	-51.71121
878.17	62.97504
878.352	85.5027
878.535	60.92707
878.718	-10.75184
878.901	28.15957
879.083	73.21488
879.266	50.68723
879.449	-86.52668
879.631	1.53598
879.814	-16.89574
879.997	-10.75184
880.179	-55.80715
880.362	-27.13559
880.545	-4.60793
880.727	-27.13559
880.91	73.21488
881.092	89.59863
881.275	91.6466
881.457	7.67988
881.64	38.39941
881.822	19.9677
882.005	36.35145
882.187	28.15957
882.37	-6.6559
882.552	24.06363
882.734	5.63191
882.917	22.01566
883.099	26.1116
883.281	48.63926
883.464	-2.55996
883.646	5.63191
883.828	-39.4234
884.011	26.1116
884.193	-25.08762
884.375	-4.60793
884.557	110.07832
884.74	42.49535
884.922	89.59863
885.104	-0.51199
885.286	9.72785
885.468	46.59129
885.65	44.54332
885.832	26.1116
886.015	-29.18355
886.197	58.8791
886.379	5.63191
886.561	30.20754
886.743	3.58395
886.925	-14.84777
887.107	22.01566
887.289	-43.51934
887.471	60.92707
887.653	40.44738
887.835	-4.60793
888.016	15.87176
888.198	5.63191
888.38	36.35145
888.562	9.72785
888.744	15.87176
888.926	-14.84777
889.108	-72.1909
889.289	32.25551
889.471	3.58395
889.653	3.58395
889.835	-6.6559
890.016	19.9677
890.198	36.35145
890.38	5.63191
890.561	44.54332
890.743	-29.18355
890.925	-10.75184
891.106	26.1116
891.288	-16.89574
891.469	60.92707
891.651	-0.51199
891.833	34.30348
892.014	-8.70387
892.196	50.68723
892.377	34.30348
892.559	-57.85512
892.74	24.06363
892.922	48.63926
893.103	30.20754
893.284	26.1116
893.466	28.15957
893.647	-29.18355
893.829	28.15957
894.01	48.63926
894.191	-41.47137
894.373	-74.23887
894.554	60.92707
894.735	40.44738
894.916	-8.70387
895.098	32.25551
895.279	-27.13559
895.46	73.21488
895.641	-0.51199
895.823	26.1116
896.004	-23.03965
896.185	67.07098
896.366	54.78316
896.547	69.11895
896.728	48.63926
896.909	5.63191
897.09	40.44738
897.271	5.63191
897.452	15.87176
897.633	24.06363
897.814	40.44738
897.995	32.25551
898.176	-27.13559
898.357	-14.84777
898.538	40.44738
898.719	46.59129
898.9	-31.23152
899.081	38.39941
899.262	13.82379
899.443	17.91973
899.623	62.97504
899.804	-84.47871
899.985	54.78316
900.166	62.97504
900.347	-29.18355
900.527	-8.70387
900.708	-6.6559
900.889	-51.71121
901.07	26.1116
901.25	1.53598
901.431	40.44738
901.611	34.30348
901.792	28.15957
901.973	48.63926
902.153	-2.55996
902.334	-12.7998
902.514	-14.84777
902.695	93.69457
902.876	40.44738
903.056	19.9677
903.237	-37.37543
903.417	26.1116
903.597	19.9677
903.778	62.97504
903.958	-8.70387
904.139	103.93441
904.319	34.30348
904.499	11.77582
904.68	56.83113
904.86	52.7352
905.04	-49.66324
905.221	-25.08762
905.401	40.44738
905.581	22.01566
905.762	-6.6559
905.942	-10.75184
906.122	81.40676
906.302	19.9677
906.482	11.77582
906.663	42.49535
906.843	3.58395
907.023	-6.6559
907.203	15.87176
907.383	-4.60793
907.563	13.82379
907.743	30.20754
907.923	-2.55996
908.103	65.02301
908.283	46.59129
908.463	-45.5673
908.643	34.30348
908.823	87.55066
909.003	7.67988
909.183	69.11895
909.363	116.22223
909.543	-10.75184
909.723	32.25551
909.903	28.15957
910.082	13.82379
910.262	26.1116
910.442	-0.51199
910.622	40.44738
910.802	-0.51199
910.981	-14.84777
911.161	56.83113
911.341	40.44738
911.521	65.02301
911.7	-25.08762
911.88	71.16691
912.06	36.35145
912.239	42.49535
912.419	67.07098
912.598	-8.70387
912.778	77.31082
912.958	-20.99168
913.137	97.79051
913.317	50.68723
913.496	38.39941
913.676	-66.04699
913.855	7.67988
914.035	40.44738
914.214	22.01566
914.393	-37.37543
914.573	-39.4234
914.752	-10.75184
914.932	110.07832
915.111	-4.60793
915.29	-0.51199
915.47	-25.08762
915.649	44.54332
915.828	58.8791
916.008	-41.47137
916.187	5.63191
916.366	-33.27949
916.545	30.20754
916.724	58.8791
916.904	48.63926
917.083	19.9677
917.262	24.06363
917.441	97.79051
917.62	-8.70387
917.799	30.20754
917.978	-59.90309
918.158	40.44738
918.337	-53.75918
918.516	-16.89574
918.695	65.02301
918.874	-0.51199
919.053	69.11895
919.232	83.45473
919.41	-25.08762
919.589	108.03035
919.768	-25.08762
919.947	83.45473
920.126	-78.3348
920.305	17.91973
920.484	-16.89574
920.663	28.15957
920.841	7.67988
921.02	89.59863
921.199	-25.08762
921.378	-70.14293
921.556	19.9677
921.735	-6.6559
921.914	-27.13559
922.093	-4.60793
922.271	-14.84777
922.45	-4.60793
922.629	42.49535
922.807	3.58395
922.986	15.87176
923.164	97.79051
923.343	46.59129
923.521	44.54332
923.7	62.97504
923.878	91.6466
924.057	60.92707
924.235	58.8791
924.414	5.63191
924.592	11.77582
924.771	1.53598
924.949	50.68723
925.128	54.78316
925.306	26.1116
925.484	44.54332
925.663	-23.03965
925.841	-12.7998
926.019	-31.23152
926.198	24.06363
926.376	9.72785
926.554	36.35145
926.732	1.53598
926.91	36.35145
927.089	-27.13559
927.267	24.06363
927.445	46.59129
927.623	26.1116
927.801	11.77582
927.979	-33.27949
928.158	36.35145
928.336	-10.75184
928.514	44.54332
928.692	-4.60793
928.87	19.9677
929.048	-29.18355
929.226	56.83113
929.404	15.87176
929.582	46.59129
929.76	-0.51199
929.937	46.59129
930.115	54.78316
930.293	7.67988
930.471	7.67988
930.649	-47.61527
930.827	-10.75184
931.005	1.53598
931.182	48.63926
931.36	15.87176
931.538	-57.85512
931.716	28.15957
931.893	28.15957
932.071	34.30348
932.249	38.39941
932.426	89.59863
932.604	22.01566
932.782	-25.08762
932.959	-8.70387
933.137	-20.99168
933.315	30.20754
933.492	17.91973
933.67	52.7352
933.847	73.21488
934.025	52.7352
934.202	103.93441
934.38	5.63191
934.557	-47.61527
934.735	7.67988
934.912	38.39941
935.089	1.53598
935.267	-10.75184
935.444	13.82379
935.622	71.16691
935.799	56.83113
935.976	-35.32746
936.154	5.63191
936.331	81.40676
936.508	67.07098
936.685	44.54332
936.863	67.07098
937.04	54.78316
937.217	-4.60793
937.394	-6.6559
937.571	-25.08762
937.748	79.35879
937.926	73.21488
938.103	114.17426
938.28	-33.27949
938.457	30.20754
938.634	-18.94371
938.811	30.20754
938.988	-23.03965
939.165	7.67988
939.342	-23.03965
939.519	-2.55996
939.696	48.63926
939.873	38.39941
940.05	40.44738
940.227	-31.23152
940.404	50.68723
940.58	9.72785
940.757	36.35145
940.934	19.9677
941.111	73.21488
941.288	-8.70387
941.464	28.15957
941.641	36.35145
941.818	-23.03965
941.995	83.45473
942.171	58.8791
942.348	46.59129
942.525	24.06363
942.701	24.06363
942.878	26.1116
943.055	19.9677
943.231	-16.89574
943.408	46.59129
943.584	-55.80715
943.761	48.63926
943.937	-18.94371
944.114	-10.75184
944.29	15.87176
944.467	30.20754
944.643	11.77582
944.82	36.35145
944.996	40.44738
945.173	-14.84777
945.349	3.58395
945.525	-47.61527
945.702	36.35145
945.878	17.91973
946.054	40.44738
946.231	48.63926
946.407	11.77582
946.583	40.44738
946.759	7.67988
946.936	54.78316
947.112	-25.08762
947.288	-12.7998
947.464	48.63926
947.64	-4.60793
947.816	81.40676
947.992	-33.27949
948.169	32.25551
948.345	-37.37543
948.521	52.7352
948.697	32.25551
948.873	-4.60793
949.049	52.7352
949.225	11.77582
949.401	87.55066
949.577	44.54332
949.753	38.39941
949.929	-20.99168
950.104	11.77582
950.28	-8.70387
950.456	3.58395
950.632	15.87176
950.808	-43.51934
950.984	9.72785
951.159	71.16691
951.335	65.02301
951.511	19.9677
951.687	48.63926
951.862	56.83113
952.038	50.68723
952.214	-61.95105
952.39	60.92707
952.565	52.7352
952.741	1.53598
952.916	75.26285
953.092	19.9677
953.268	-18.94371
953.443	11.77582
953.619	17.91973
953.794	30.20754
953.97	87.55066
954.145	24.06363
954.321	65.02301
954.496	9.72785
954.672	3.58395
954.847	42.49535
955.022	11.77582
955.198	54.78316
955.373	-41.47137
955.548	-43.51934
955.724	-12.7998
955.899	-0.51199
956.074	-49.66324
956.25	75.26285
956.425	81.40676
956.6	11.77582
956.775	-12.7998
956.951	48.63926
957.126	9.72785
957.301	32.25551
957.476	-31.23152
957.651	7.67988
957.826	5.63191
958.001	22.01566
958.176	-0.51199
958.352	-27.13559
958.527	1.53598
958.702	-33.27949
958.877	42.49535
959.052	-49.66324
959.227	28.15957
959.401	54.78316
959.576	22.01566
959.751	32.25551
959.926	48.63926
960.101	44.54332
960.276	42.49535
960.451	30.20754
960.626	97.79051
960.8	15.87176
960.975	-59.90309
961.15	48.63926
961.325	62.97504
961.499	36.35145
961.674	24.06363
961.849	42.49535
962.023	44.54332
962.198	3.58395
962.373	48.63926
962.547	15.87176
962.722	-4.60793
962.897	-4.60793
963.071	38.39941
963.246	60.92707
963.42	26.1116
963.595	130.55801
963.769	-18.94371
963.944	60.92707
964.118	-18.94371
964.293	-0.51199
964.467	73.21488
964.641	24.06363
964.816	83.45473
964.99	-2.55996
965.165	-25.08762
965.339	-29.18355
965.513	50.68723
965.687	48.63926
965.862	85.5027
966.036	54.78316
966.21	58.8791
966.384	71.16691
966.559	-25.08762
966.733	62.97504
966.907	-10.75184
967.081	-39.4234
967.255	-96.76652
967.429	48.63926
967.604	50.68723
967.778	65.02301
967.952	42.49535
968.126	71.16691
968.3	-45.5673
968.474	87.55066
968.648	-23.03965
968.822	19.9677
968.996	15.87176
969.17	56.83113
969.343	11.77582
969.517	-37.37543
969.691	87.55066
969.865	46.59129
970.039	-18.94371
970.213	48.63926
970.387	22.01566
970.56	15.87176
970.734	40.44738
970.908	50.68723
971.082	-8.70387
971.255	91.6466
971.429	3.58395
971.603	22.01566
971.776	30.20754
971.95	-8.70387
972.124	-33.27949
972.297	-6.6559
972.471	15.87176
972.644	30.20754
972.818	11.77582
972.991	9.72785
973.165	5.63191
973.338	-29.18355
973.512	40.44738
973.685	38.39941
973.859	54.78316
974.032	38.39941
974.206	40.44738
974.379	24.06363
974.552	40.44738
974.726	7.67988
974.899	40.44738
975.072	-29.18355
975.246	-12.7998
975.419	-0.51199
975.592	19.9677
975.765	-0.51199
975.939	36.35145
976.112	93.69457
976.285	11.77582
976.458	26.1116
976.631	110.07832
976.804	-4.60793
976.977	7.67988
977.151	-18.94371
977.324	-8.70387
977.497	52.7352
977.67	-8.70387
977.843	95.74254
978.016	-6.6559
978.189	-10.75184
978.362	30.20754
978.535	-8.70387
978.707	-10.75184
978.88	48.63926
979.053	38.39941
979.226	-35.32746
979.399	-4.60793
979.572	105.98238
979.745	34.30348
979.917	-25.08762
980.09	-12.7998
980.263	44.54332
980.436	-20.99168
980.608	-49.66324
980.781	-8.70387
980.954	22.01566
981.126	5.63191
981.299	-10.75184
981.472	-33.27949
981.644	34.30348
981.817	22.01566
981.989	46.59129
982.162	-23.03965
982.335	-35.32746
982.507	38.39941
982.68	11.77582
982.852	-39.4234
983.024	-23.03965
983.197	42.49535
983.369	-10.75184
983.542	36.35145
983.714	-2.55996
983.886	-33.27949
984.059	15.87176
984.231	-29.18355
984.403	56.83113
984.576	3.58395
984.748	26.1116
984.92	5.63191
985.093	-25.08762
985.265	28.15957
985.437	7.67988
985.609	26.1116
985.781	-10.75184
985.953	73.21488
986.126	65.02301
986.298	22.01566
986.47	50.68723
986.642	-25.08762
986.814	15.87176
986.986	19.9677
987.158	-25.08762
987.33	-0.51199
987.502	-14.84777
987.674	17.91973
987.846	-37.37543
988.018	-43.51934
988.19	44.54332
988.361	34.30348
988.533	24.06363
988.705	56.83113
988.877	-119.29418
989.049	60.92707
989.221	56.83113
989.392	42.49535
989.564	-6.6559
989.736	-10.75184
989.908	-39.4234
990.079	48.63926
990.251	-70.14293
990.423	19.9677
990.594	26.1116
990.766	28.15957
990.937	9.72785
991.109	32.25551
991.281	44.54332
991.452	44.54332
991.624	24.06363
991.795	-4.60793
991.967	3.58395
992.138	87.55066
992.31	42.49535
992.481	81.40676
992.652	-8.70387
992.824	3.58395
992.995	15.87176
993.167	56.83113
993.338	-0.51199
993.509	22.01566
993.681	3.58395
993.852	11.77582
994.023	36.35145
994.194	-18.94371
994.366	19.9677
994.537	7.67988
994.708	3.58395
994.879	-20.99168
995.05	-18.94371
995.221	19.9677
995.393	-6.6559
995.564	71.16691
995.735	-8.70387
995.906	50.68723
996.077	13.82379
996.248	28.15957
996.419	62.97504
996.59	-0.51199
996.761	56.83113
996.932	-27.13559
997.103	34.30348
997.274	67.07098
997.444	-16.89574
997.615	50.68723
997.786	34.30348
997.957	114.17426
998.128	65.02301
998.299	19.9677
998.469	-41.47137
998.64	30.20754
998.811	-10.75184
998.982	91.6466
999.152	9.72785
999.323	38.39941
999.494	-14.84777
999.664	91.6466
999.835	-41.47137
1000.006	-33.27949
1000.176	26.1116
1000.347	24.06363
1000.517	50.68723
1000.688	-45.5673
1000.858	-12.7998
1001.029	-25.08762
1001.199	-27.13559
1001.37	46.59129
1001.54	17.91973
1001.711	1.53598
1001.881	83.45473
1002.051	17.91973
1002.222	13.82379
1002.392	79.35879
1002.562	-27.13559
1002.733	56.83113
1002.903	77.31082
1003.073	-35.32746
1003.244	97.79051
1003.414	24.06363
1003.584	-16.89574
1003.754	44.54332
1003.924	3.58395
1004.094	11.77582
1004.265	24.06363
1004.435	46.59129
1004.605	1.53598
1004.775	38.39941
1004.945	62.97504
1005.115	19.9677
1005.285	3.58395
1005.455	13.82379
1005.625	19.9677
1005.795	52.7352
1005.965	-18.94371
1006.135	44.54332
1006.305	-49.66324
1006.475	22.01566
1006.645	7.67988
1006.814	40.44738
1006.984	34.30348
1007.154	34.30348
1007.324	56.83113
1007.494	26.1116
1007.663	83.45473
1007.833	62.97504
1008.003	28.15957
1008.172	108.03035
1008.342	3.58395
1008.512	24.06363
1008.681	-29.18355
1008.851	73.21488
1009.021	40.44738
1009.19	38.39941
1009.36	-47.61527
1009.529	87.55066
1009.699	-23.03965
1009.868	-20.99168
1010.038	32.25551
1010.207	54.78316
1010.377	15.87176
1010.546	24.06363
1010.716	24.06363
1010.885	-61.95105
1011.054	15.87176
1011.224	36.35145
1011.393	-0.51199
1011.562	-12.7998
1011.732	32.25551
1011.901	73.21488
1012.07	22.01566
1012.24	19.9677
1012.409	-4.60793
1012.578	81.40676
1012.747	15.87176
1012.916	-10.75184
1013.085	-43.51934
1013.255	58.8791
1013.424	157.1816
1013.593	42.49535
1013.762	-27.13559
1013.931	-23.03965
1014.1	-23.03965
1014.269	50.68723
1014.438	13.82379
1014.607	3.58395
1014.776	15.87176
1014.945	87.55066
1015.114	-29.18355
1015.283	36.35145
1015.451	-80.38277
1015.62	15.87176
1015.789	13.82379
1015.958	62.97504
1016.127	-53.75918
1016.296	28.15957
1016.464	-4.60793
1016.633	5.63191
1016.802	65.02301
1016.971	-29.18355
1017.139	-33.27949
1017.308	73.21488
1017.477	54.78316
1017.645	75.26285
1017.814	28.15957
1017.982	-4.60793
1018.151	1.53598
1018.319	-10.75184
1018.488	-72.1909
1018.657	3.58395
1018.825	-4.60793
1018.993	9.72785
1019.162	13.82379
1019.33	32.25551
1019.499	75.26285
1019.667	-12.7998
1019.836	-12.7998
1020.004	9.72785
1020.172	24.06363
1020.341	46.59129
1020.509	-14.84777
1020.677	-16.89574
1020.845	48.63926
1021.014	-8.70387
1021.182	9.72785
1021.35	1.53598
1021.518	5.63191
1021.686	22.01566
1021.855	-4.60793
1022.023	71.16691
1022.191	30.20754
1022.359	-12.7998
1022.527	-8.70387
1022.695	22.01566
1022.863	7.67988
1023.031	-8.70387
1023.199	3.58395
1023.367	48.63926
1023.535	-12.7998
1023.703	-16.89574
1023.871	40.44738
1024.039	58.8791
1024.207	7.67988
1024.375	-25.08762
1024.542	110.07832
1024.71	13.82379
1024.878	-63.99902
1025.046	24.06363
1025.213	58.8791
1025.381	11.77582
1025.549	26.1116
1025.717	32.25551
1025.884	15.87176
1026.052	9.72785
1026.22	1.53598
1026.387	15.87176
1026.555	-20.99168
1026.722	60.92707
1026.89	-33.27949
1027.058	44.54332
1027.225	40.44738
1027.393	22.01566
1027.56	-20.99168
1027.728	40.44738
1027.895	-0.51199
1028.062	-4.60793
1028.23	36.35145
1028.397	-16.89574
1028.565	15.87176
1028.732	26.1116
1028.899	38.39941
1029.067	87.55066
1029.234	5.63191
1029.401	28.15957
1029.568	9.72785
1029.736	50.68723
1029.903	19.9677
1030.07	1.53598
1030.237	44.54332
1030.404	-10.75184
1030.572	15.87176
1030.739	5.63191
1030.906	24.06363
1031.073	54.78316
1031.24	-8.70387
1031.407	50.68723
1031.574	-0.51199
1031.741	85.5027
1031.908	34.30348
1032.075	-10.75184
1032.242	65.02301
1032.409	-4.60793
1032.576	-23.03965
1032.743	17.91973
1032.91	69.11895
1033.076	11.77582
1033.243	1.53598
1033.41	65.02301
1033.577	24.06363
1033.744	81.40676
1033.91	38.39941
1034.077	-27.13559
1034.244	48.63926
1034.41	60.92707
1034.577	42.49535
1034.744	11.77582
1034.91	11.77582
1035.077	15.87176
1035.244	19.9677
1035.41	24.06363
1035.577	54.78316
1035.743	5.63191
1035.91	93.69457
1036.076	-41.47137
1036.243	38.39941
1036.409	7.67988
1036.576	89.59863
1036.742	42.49535
1036.908	71.16691
1037.075	19.9677
1037.241	32.25551
1037.408	-20.99168
1037.574	48.63926
1037.74	81.40676
1037.906	85.5027
1038.073	32.25551
1038.239	44.54332
1038.405	-2.55996
1038.571	-4.60793
1038.738	-33.27949
1038.904	-10.75184
1039.07	26.1116
1039.236	52.7352
1039.402	69.11895
1039.568	99.83848
1039.734	7.67988
1039.9	81.40676
1040.066	77.31082
1040.232	-12.7998
1040.398	54.78316
1040.564	54.78316
1040.73	67.07098
1040.896	110.07832
1041.062	48.63926
1041.228	11.77582
1041.394	48.63926
1041.56	22.01566
1041.725	1.53598
1041.891	-25.08762
1042.057	28.15957
1042.223	-20.99168
1042.389	36.35145
1042.554	103.93441
1042.72	26.1116
1042.886	-2.55996
1043.051	5.63191
1043.217	-12.7998
1043.383	-66.04699
1043.548	-14.84777
1043.714	-37.37543
1043.879	-25.08762
1044.045	-18.94371
1044.21	60.92707
1044.376	7.67988
1044.541	15.87176
1044.707	9.72785
1044.872	-4.60793
1045.038	-2.55996
1045.203	-63.99902
1045.369	91.6466
1045.534	-45.5673
1045.699	-12.7998
1045.865	48.63926
1046.03	-37.37543
1046.195	42.49535
1046.361	42.49535
1046.526	-20.99168
1046.691	-20.99168
1046.856	30.20754
1047.021	30.20754
1047.187	7.67988
1047.352	22.01566
1047.517	22.01566
1047.682	42.49535
1047.847	34.30348
1048.012	103.93441
1048.177	30.20754
1048.342	60.92707
1048.507	13.82379
1048.672	-20.99168
1048.837	85.5027
1049.002	54.78316
1049.167	-29.18355
1049.332	17.91973
1049.497	-57.85512
1049.662	19.9677
1049.827	3.58395
1049.992	85.5027
1050.156	44.54332
1050.321	-6.6559
1050.486	-18.94371
1050.651	5.63191
1050.816	9.72785
1050.98	-35.32746
1051.145	7.67988
1051.31	-6.6559
1051.474	40.44738
1051.639	24.06363
1051.804	-6.6559
1051.968	-74.23887
1052.133	5.63191
1052.297	19.9677
1052.462	-29.18355
1052.626	-12.7998
1052.791	22.01566
1052.955	44.54332
1053.12	79.35879
1053.284	15.87176
1053.449	34.30348
1053.613	65.02301
1053.777	-8.70387
1053.942	73.21488
1054.106	110.07832
1054.27	17.91973
1054.435	1.53598
1054.599	-20.99168
1054.763	30.20754
1054.928	50.68723
1055.092	26.1116
1055.256	44.54332
1055.42	79.35879
1055.584	-6.6559
1055.748	1.53598
1055.913	15.87176
1056.077	11.77582
1056.241	58.8791
1056.405	-53.75918
1056.569	3.58395
1056.733	-33.27949
1056.897	40.44738
1057.061	-0.51199
1057.225	30.20754
1057.389	-8.70387
1057.553	60.92707
1057.717	54.78316
1057.88	19.9677
1058.044	-80.38277
1058.208	-27.13559
1058.372	15.87176
1058.536	54.78316
1058.7	67.07098
1058.863	40.44738
1059.027	-25.08762
1059.191	-4.60793
1059.355	28.15957
1059.518	5.63191
1059.682	-57.85512
1059.846	-12.7998
1060.009	-16.89574
1060.173	26.1116
1060.336	13.82379
1060.5	22.01566
1060.663	32.25551
1060.827	13.82379
1060.99	38.39941
1061.154	-33.27949
1061.317	65.02301
1061.481	-18.94371
1061.644	28.15957
1061.808	-12.7998
1061.971	58.8791
1062.134	19.9677
1062.298	-4.60793
1062.461	34.30348
1062.624	69.11895
1062.788	42.49535
1062.951	85.5027
1063.114	-35.32746
1063.277	-53.75918
1063.441	11.77582
1063.604	38.39941
1063.767	85.5027
1063.93	-6.6559
1064.093	65.02301
1064.256	19.9677
1064.419	-29.18355
1064.582	-14.84777
1064.745	9.72785
1064.908	9.72785
1065.071	58.8791
1065.234	5.63191
1065.397	40.44738
1065.56	62.97504
1065.723	44.54332
1065.886	-37.37543
1066.049	-53.75918
1066.212	40.44738
1066.375	71.16691
1066.537	19.9677
1066.7	11.77582
1066.863	19.9677
1067.026	7.67988
1067.189	77.31082
1067.351	-18.94371
1067.514	32.25551
1067.677	54.78316
1067.839	-4.60793
1068.002	-72.1909
1068.165	-16.89574
1068.327	22.01566
1068.49	60.92707
1068.652	-23.03965
1068.815	40.44738
1068.977	-27.13559
1069.14	-4.60793
1069.302	1.53598
1069.465	17.91973
1069.627	103.93441
1069.79	58.8791
1069.952	65.02301
1070.114	-29.18355
1070.277	30.20754
1070.439	52.7352
1070.601	34.30348
1070.764	77.31082
1070.926	-0.51199
1071.088	9.72785
1071.25	-10.75184
1071.413	1.53598
1071.575	99.83848
1071.737	28.15957
1071.899	-16.89574
1072.061	22.01566
1072.223	42.49535
1072.385	32.25551
1072.547	65.02301
1072.71	38.39941
1072.872	5.63191
1073.034	22.01566
1073.196	50.68723
1073.358	-14.84777
1073.519	22.01566
1073.681	-4.60793
1073.843	11.77582
1074.005	32.25551
1074.167	54.78316
1074.329	67.07098
1074.491	-6.6559
1074.652	11.77582
1074.814	-41.47137
1074.976	40.44738
1075.138	-53.75918
1075.299	36.35145
1075.461	5.63191
1075.623	87.55066
1075.785	87.55066
1075.946	40.44738
1076.108	24.06363
1076.269	42.49535
1076.431	56.83113
1076.593	-68.09496
1076.754	3.58395
1076.916	-8.70387
1077.077	44.54332
1077.239	-2.55996
1077.4	56.83113
1077.561	7.67988
1077.723	38.39941
1077.884	58.8791
1078.046	-4.60793
1078.207	30.20754
1078.368	54.78316
1078.53	-12.7998
1078.691	38.39941
1078.852	11.77582
1079.013	-35.32746
1079.175	1.53598
1079.336	-4.60793
1079.497	38.39941
1079.658	1.53598
1079.819	46.59129
1079.981	-66.04699
1080.142	54.78316
1080.303	65.02301
1080.464	54.78316
1080.625	28.15957
1080.786	3.58395
1080.947	-29.18355
1081.108	44.54332
1081.269	38.39941
1081.43	67.07098
1081.591	58.8791
1081.752	-8.70387
1081.912	24.06363
1082.073	-29.18355
1082.234	56.83113
1082.395	-45.5673
1082.556	52.7352
1082.717	3.58395
1082.877	67.07098
1083.038	-16.89574
1083.199	22.01566
1083.359	-41.47137
1083.52	-31.23152
1083.681	-29.18355
1083.841	-4.60793
1084.002	3.58395
1084.163	69.11895
1084.323	11.77582
1084.484	22.01566
1084.644	17.91973
1084.805	26.1116
1084.965	-8.70387
1085.126	26.1116
1085.286	-23.03965
1085.447	-10.75184
1085.607	17.91973
1085.767	48.63926
1085.928	-12.7998
1086.088	-35.32746
1086.249	3.58395
1086.409	-14.84777
1086.569	5.63191
1086.729	58.8791
1086.89	-8.70387
1087.05	54.78316
1087.21	32.25551
1087.37	44.54332
1087.53	26.1116
1087.691	85.5027
1087.851	46.59129
1088.011	38.39941
1088.171	54.78316
1088.331	40.44738
1088.491	40.44738
1088.651	36.35145
1088.811	87.55066
1088.971	11.77582
1089.131	-4.60793
1089.291	114.17426
1089.451	30.20754
1089.611	1.53598
1089.771	1.53598
1089.93	-4.60793
1090.09	-74.23887
1090.25	-47.61527
1090.41	26.1116
1090.57	-10.75184
1090.729	30.20754
1090.889	48.63926
1091.049	62.97504
1091.208	-0.51199
1091.368	26.1116
1091.528	11.77582
1091.687	24.06363
1091.847	40.44738
1092.007	-18.94371
1092.166	60.92707
1092.326	-0.51199
1092.485	-25.08762
1092.645	24.06363
1092.804	19.9677
1092.964	11.77582
1093.123	77.31082
1093.282	32.25551
1093.442	7.67988
1093.601	91.6466
1093.761	22.01566
1093.92	-12.7998
1094.079	34.30348
1094.239	62.97504
1094.398	-41.47137
1094.557	26.1116
1094.716	-0.51199
1094.876	44.54332
1095.035	75.26285
1095.194	-0.51199
1095.353	40.44738
1095.512	-4.60793
1095.671	50.68723
1095.83	-27.13559
1095.989	32.25551
1096.148	81.40676
1096.307	-37.37543
1096.466	-29.18355
1096.625	-35.32746
1096.784	32.25551
1096.943	11.77582
1097.102	-0.51199
1097.261	15.87176
1097.42	19.9677
1097.579	32.25551
1097.738	-4.60793
1097.897	77.31082
1098.055	58.8791
1098.214	50.68723
1098.373	1.53598
1098.532	32.25551
1098.69	22.01566
1098.849	19.9677
1099.008	7.67988
1099.166	-20.99168
1099.325	30.20754
1099.484	67.07098
1099.642	65.02301
1099.801	30.20754
1099.959	17.91973
1100.118	11.77582
1100.276	-29.18355
1100.435	32.25551
1100.593	-29.18355
1100.752	11.77582
1100.91	-4.60793
1101.068	-18.94371
1101.227	17.91973
1101.385	-8.70387
1101.544	1.53598
1101.702	5.63191
1101.86	89.59863
1102.018	52.7352
1102.177	-29.18355
1102.335	-4.60793
1102.493	44.54332
1102.651	85.5027
1102.809	-2.55996
1102.968	-16.89574
1103.126	3.58395
1103.284	9.72785
1103.442	42.49535
1103.6	46.59129
1103.758	69.11895
1103.916	13.82379
1104.074	83.45473
1104.232	-2.55996
1104.39	52.7352
1104.548	99.83848
1104.706	58.8791
1104.864	19.9677
1105.022	9.72785
1105.179	11.77582
1105.337	9.72785
1105.495	-2.55996
1105.653	24.06363
1105.811	-2.55996
1105.968	-2.55996
1106.126	54.78316
1106.284	79.35879
1106.441	-33.27949
1106.599	-0.51199
1106.757	28.15957
1106.914	-2.55996
1107.072	40.44738
1107.23	11.77582
1107.387	30.20754
1107.545	46.59129
1107.702	50.68723
1107.86	44.54332
1108.017	13.82379
1108.175	-25.08762
1108.332	56.83113
1108.489	17.91973
1108.647	62.97504
1108.804	-0.51199
1108.962	48.63926
1109.119	48.63926
1109.276	-25.08762
1109.433	24.06363
1109.591	30.20754
1109.748	26.1116
1109.905	42.49535
1110.062	48.63926
1110.22	60.92707
1110.377	9.72785
1110.534	36.35145
1110.691	97.79051
1110.848	22.01566
1111.005	-8.70387
1111.162	30.20754
1111.319	-4.60793
1111.476	97.79051
1111.633	38.39941
1111.79	-12.7998
1111.947	-0.51199
1112.104	24.06363
1112.261	28.15957
1112.418	26.1116
1112.575	81.40676
1112.732	36.35145
1112.888	-18.94371
1113.045	9.72785
1113.202	-45.5673
1113.359	60.92707
1113.515	42.49535
1113.672	32.25551
1113.829	-12.7998
1113.985	60.92707
1114.142	-29.18355
1114.299	54.78316
1114.455	-31.23152
1114.612	71.16691
1114.769	-25.08762
1114.925	-20.99168
1115.082	15.87176
1115.238	38.39941
1115.395	36.35145
1115.551	40.44738
1115.707	-70.14293
1115.864	-27.13559
1116.02	97.79051
1116.177	44.54332
1116.333	-29.18355
1116.489	15.87176
1116.646	-18.94371
1116.802	79.35879
1116.958	19.9677
1117.114	-4.60793
1117.271	42.49535
1117.427	32.25551
1117.583	-2.55996
1117.739	26.1116
1117.895	11.77582
1118.051	50.68723
1118.208	40.44738
1118.364	3.58395
1118.52	32.25551
1118.676	-12.7998
1118.832	17.91973
1118.988	-20.99168
1119.144	-35.32746
1119.3	15.87176
1119.456	-6.6559
1119.611	11.77582
1119.767	34.30348
1119.923	11.77582
1120.079	40.44738
1120.235	3.58395
1120.391	-35.32746
1120.546	62.97504
1120.702	11.77582
1120.858	22.01566
1121.014	40.44738
1121.169	-70.14293
1121.325	44.54332
1121.481	83.45473
1121.636	81.40676
1121.792	9.72785
1121.947	22.01566
1122.103	38.39941
1122.259	13.82379
1122.414	11.77582
1122.57	44.54332
1122.725	28.15957
1122.881	-16.89574
1123.036	65.02301
1123.191	-8.70387
1123.347	81.40676
1123.502	30.20754
1123.657	13.82379
1123.813	30.20754
1123.968	30.20754
1124.123	19.9677
1124.279	-16.89574
1124.434	7.67988
1124.589	44.54332
1124.744	36.35145
1124.9	11.77582
1125.055	-4.60793
1125.21	-25.08762
1125.365	114.17426
1125.52	5.63191
1125.675	15.87176
1125.83	-70.14293
1125.985	73.21488
1126.14	-0.51199
1126.295	36.35145
1126.45	46.59129
1126.605	32.25551
