Data from backuniphase1507p0_USB4C031521__0__16-18-20-348.txt Node

Date: Wed May 06 16:18:20 CEST 2026
User: FIDOPA_3
Spectrometer: USB4C03152
Scans to average: 1
Trigger mode: 4
Integration Time (sec): 6.000000E-4
Electric dark correction enabled: true
Boxcar width: 0
XAxis mode: Wavelengths
Number of Pixels in Spectrum: 3648
>>>>>Begin Spectral Data<<<<<
445.929	-32.7675
446.14	-32.7675
446.351	-32.7675
446.562	24.57562
446.773	-4.09594
446.984	-22.52766
447.194	14.33578
447.405	-20.47969
447.616	8.19187
447.827	-22.52766
448.038	47.10328
448.249	22.52766
448.459	16.38375
448.67	-55.29516
448.881	16.38375
449.092	-20.47969
449.303	16.38375
449.513	-36.86344
449.724	16.38375
449.935	-6.14391
450.146	38.91141
450.356	-49.15125
450.567	-16.38375
450.778	-67.58297
450.988	-51.19922
451.199	-10.23984
451.41	43.00734
451.62	14.33578
451.831	-8.19187
452.042	-47.10328
452.252	12.28781
452.463	4.09594
452.674	-24.57563
452.884	-6.14391
453.095	10.23984
453.305	18.43172
453.516	38.91141
453.727	45.05531
453.937	53.24719
454.148	12.28781
454.358	61.43906
454.569	-10.23984
454.779	-10.23984
454.99	-32.7675
455.2	22.52766
455.411	4.09594
455.621	-20.47969
455.832	24.57562
456.042	16.38375
456.253	-45.05531
456.463	22.52766
456.674	2.04797
456.884	2.04797
457.095	-32.7675
457.305	22.52766
457.515	-18.43172
457.726	6.14391
457.936	-75.77484
458.147	53.24719
458.357	4.09594
458.567	-20.47969
458.778	45.05531
458.988	4.09594
459.198	20.47969
459.409	0
459.619	28.67156
459.829	4.09594
460.039	-4.09594
460.25	-34.81547
460.46	28.67156
460.67	2.04797
460.881	-61.43906
461.091	-36.86344
461.301	-28.67156
461.511	-28.67156
461.721	0
461.932	47.10328
462.142	104.44641
462.352	-8.19187
462.562	-61.43906
462.772	8.19187
462.983	-57.34313
463.193	-12.28781
463.403	-83.96672
463.613	-40.95938
463.823	-8.19187
464.033	14.33578
464.243	53.24719
464.453	77.82281
464.664	65.535
464.874	10.23984
465.084	57.34312
465.294	65.535
465.504	4.09594
465.714	-22.52766
465.924	28.67156
466.134	-6.14391
466.344	61.43906
466.554	32.7675
466.764	24.57562
466.974	-122.87813
467.184	32.7675
467.394	-47.10328
467.604	53.24719
467.814	-20.47969
468.024	16.38375
468.233	8.19187
468.443	0
468.653	-8.19187
468.863	-57.34313
469.073	28.67156
469.283	-16.38375
469.493	-38.91141
469.703	-14.33578
469.912	49.15125
470.122	-8.19187
470.332	77.82281
470.542	-34.81547
470.752	18.43172
470.962	20.47969
471.171	-10.23984
471.381	-20.47969
471.591	2.04797
471.801	47.10328
472.01	16.38375
472.22	26.62359
472.43	12.28781
472.64	-49.15125
472.849	30.71953
473.059	-22.52766
473.269	18.43172
473.478	53.24719
473.688	0
473.898	20.47969
474.107	102.39844
474.317	-40.95938
474.527	77.82281
474.736	-53.24719
474.946	-55.29516
475.155	34.81547
475.365	0
475.575	-8.19187
475.784	-81.91875
475.994	-53.24719
476.203	-57.34313
476.413	-26.62359
476.622	-6.14391
476.832	18.43172
477.041	-14.33578
477.251	-30.71953
477.46	-20.47969
477.67	22.52766
477.879	10.23984
478.089	49.15125
478.298	61.43906
478.508	-16.38375
478.717	38.91141
478.927	-57.34313
479.136	-30.71953
479.345	53.24719
479.555	-4.09594
479.764	32.7675
479.974	-6.14391
480.183	32.7675
480.392	22.52766
480.602	30.71953
480.811	-26.62359
481.02	18.43172
481.23	26.62359
481.439	-40.95938
481.648	-96.25453
481.858	-12.28781
482.067	28.67156
482.276	-6.14391
482.485	63.48703
482.695	-45.05531
482.904	92.15859
483.113	6.14391
483.322	-22.52766
483.532	16.38375
483.741	-49.15125
483.95	22.52766
484.159	30.71953
484.368	6.14391
484.577	61.43906
484.787	-26.62359
484.996	-2.04797
485.205	-18.43172
485.414	24.57562
485.623	8.19187
485.832	114.68625
486.041	-63.48703
486.25	83.96672
486.459	26.62359
486.669	12.28781
486.878	-2.04797
487.087	22.52766
487.296	-45.05531
487.505	20.47969
487.714	-4.09594
487.923	-10.23984
488.132	12.28781
488.341	0
488.55	47.10328
488.759	-36.86344
488.968	34.81547
489.177	-24.57563
489.385	-28.67156
489.594	30.71953
489.803	-10.23984
490.012	0
490.221	38.91141
490.43	8.19187
490.639	-34.81547
490.848	20.47969
491.057	10.23984
491.265	53.24719
491.474	-24.57563
491.683	57.34312
491.892	2.04797
492.101	26.62359
492.31	34.81547
492.518	36.86344
492.727	-47.10328
492.936	6.14391
493.145	-10.23984
493.353	10.23984
493.562	32.7675
493.771	36.86344
493.98	2.04797
494.188	-4.09594
494.397	-38.91141
494.606	20.47969
494.814	49.15125
495.023	32.7675
495.232	45.05531
495.44	47.10328
495.649	22.52766
495.858	-30.71953
496.066	-26.62359
496.275	-47.10328
496.483	2.04797
496.692	-12.28781
496.901	4.09594
497.109	4.09594
497.318	2.04797
497.526	4.09594
497.735	53.24719
497.943	2.04797
498.152	2.04797
498.36	12.28781
498.569	-12.28781
498.777	-61.43906
498.986	-65.535
499.194	36.86344
499.403	2.04797
499.611	-22.52766
499.82	-51.19922
500.028	12.28781
500.236	-26.62359
500.445	38.91141
500.653	24.57562
500.862	38.91141
501.07	-22.52766
501.278	-67.58297
501.487	65.535
501.695	24.57562
501.903	-10.23984
502.112	-22.52766
502.32	16.38375
502.528	-55.29516
502.737	43.00734
502.945	0
503.153	59.39109
503.361	-4.09594
503.57	2.04797
503.778	36.86344
503.986	8.19187
504.194	45.05531
504.403	24.57562
504.611	40.95937
504.819	14.33578
505.027	-6.14391
505.235	83.96672
505.443	81.91875
505.652	-4.09594
505.86	-4.09594
506.068	-51.19922
506.276	-30.71953
506.484	-12.28781
506.692	-18.43172
506.9	-55.29516
507.108	24.57562
507.316	-69.63094
507.524	-20.47969
507.733	-12.28781
507.941	51.19922
508.149	16.38375
508.357	40.95937
508.565	10.23984
508.773	-8.19187
508.981	40.95937
509.189	51.19922
509.397	59.39109
509.605	8.19187
509.812	-63.48703
510.02	28.67156
510.228	-28.67156
510.436	8.19187
510.644	14.33578
510.852	49.15125
511.06	6.14391
511.268	0
511.476	16.38375
511.684	20.47969
511.891	38.91141
512.099	-16.38375
512.307	69.63094
512.515	57.34312
512.723	10.23984
512.93	18.43172
513.138	-10.23984
513.346	61.43906
513.554	32.7675
513.761	0
513.969	38.91141
514.177	32.7675
514.385	-24.57563
514.592	-28.67156
514.8	59.39109
515.008	-26.62359
515.215	4.09594
515.423	-47.10328
515.631	32.7675
515.838	16.38375
516.046	-69.63094
516.254	-38.91141
516.461	0
516.669	24.57562
516.876	63.48703
517.084	26.62359
517.292	-43.00734
517.499	55.29516
517.707	49.15125
517.914	98.3025
518.122	-53.24719
518.329	-59.39109
518.537	61.43906
518.744	61.43906
518.952	6.14391
519.159	12.28781
519.367	-8.19187
519.574	34.81547
519.782	-6.14391
519.989	8.19187
520.197	49.15125
520.404	-6.14391
520.611	-4.09594
520.819	-45.05531
521.026	-20.47969
521.234	-16.38375
521.441	8.19187
521.648	-16.38375
521.856	-53.24719
522.063	45.05531
522.27	16.38375
522.478	20.47969
522.685	-73.72688
522.892	65.535
523.1	-38.91141
523.307	-12.28781
523.514	38.91141
523.721	8.19187
523.929	22.52766
524.136	2.04797
524.343	-38.91141
524.55	30.71953
524.757	-34.81547
524.965	55.29516
525.172	-32.7675
525.379	-22.52766
525.586	-53.24719
525.793	16.38375
526	34.81547
526.208	10.23984
526.415	-4.09594
526.622	-28.67156
526.829	-14.33578
527.036	-24.57563
527.243	40.95937
527.45	-8.19187
527.657	30.71953
527.864	6.14391
528.071	32.7675
528.278	-24.57563
528.485	-59.39109
528.692	34.81547
528.899	-6.14391
529.106	-28.67156
529.313	4.09594
529.52	-24.57563
529.727	14.33578
529.934	2.04797
530.141	-45.05531
530.348	26.62359
530.555	18.43172
530.762	90.11063
530.968	-10.23984
531.175	-16.38375
531.382	28.67156
531.589	-18.43172
531.796	16.38375
532.003	-20.47969
532.21	30.71953
532.416	10.23984
532.623	47.10328
532.83	6.14391
533.037	-30.71953
533.243	-10.23984
533.45	-4.09594
533.657	28.67156
533.864	8.19187
534.07	22.52766
534.277	2.04797
534.484	12.28781
534.691	-8.19187
534.897	28.67156
535.104	-6.14391
535.311	-32.7675
535.517	26.62359
535.724	34.81547
535.93	-12.28781
536.137	6.14391
536.344	-55.29516
536.55	24.57562
536.757	49.15125
536.963	-16.38375
537.17	-55.29516
537.377	10.23984
537.583	-32.7675
537.79	-26.62359
537.996	-57.34313
538.203	63.48703
538.409	67.58297
538.616	-18.43172
538.822	-2.04797
539.029	8.19187
539.235	-63.48703
539.442	10.23984
539.648	92.15859
539.854	16.38375
540.061	6.14391
540.267	22.52766
540.474	22.52766
540.68	-2.04797
540.886	4.09594
541.093	32.7675
541.299	28.67156
541.505	36.86344
541.712	-16.38375
541.918	47.10328
542.124	-65.535
542.331	-10.23984
542.537	-32.7675
542.743	-24.57563
542.949	12.28781
543.156	-10.23984
543.362	20.47969
543.568	55.29516
543.774	32.7675
543.981	16.38375
544.187	-53.24719
544.393	6.14391
544.599	28.67156
544.805	28.67156
545.011	-55.29516
545.218	-30.71953
545.424	-55.29516
545.63	24.57562
545.836	6.14391
546.042	67.58297
546.248	-24.57563
546.454	-2.04797
546.66	40.95937
546.866	12.28781
547.072	2.04797
547.278	-2.04797
547.484	2.04797
547.69	4.09594
547.896	6.14391
548.102	36.86344
548.308	-73.72688
548.514	4.09594
548.72	28.67156
548.926	6.14391
549.132	59.39109
549.338	18.43172
549.544	-16.38375
549.75	-32.7675
549.956	47.10328
550.162	-34.81547
550.368	-2.04797
550.574	61.43906
550.779	-2.04797
550.985	8.19187
551.191	34.81547
551.397	61.43906
551.603	51.19922
551.808	59.39109
552.014	-38.91141
552.22	-92.15859
552.426	81.91875
552.632	-30.71953
552.837	61.43906
553.043	6.14391
553.249	43.00734
553.454	65.535
553.66	-20.47969
553.866	26.62359
554.071	-34.81547
554.277	-34.81547
554.483	-20.47969
554.688	-2.04797
554.894	-20.47969
555.1	53.24719
555.305	-4.09594
555.511	4.09594
555.716	-14.33578
555.922	-10.23984
556.128	8.19187
556.333	45.05531
556.539	-12.28781
556.744	59.39109
556.95	-24.57563
557.155	57.34312
557.361	-30.71953
557.566	53.24719
557.772	40.95937
557.977	51.19922
558.183	67.58297
558.388	4.09594
558.594	-16.38375
558.799	45.05531
559.004	10.23984
559.21	-20.47969
559.415	40.95937
559.621	16.38375
559.826	12.28781
560.031	6.14391
560.237	18.43172
560.442	63.48703
560.647	-16.38375
560.853	40.95937
561.058	-38.91141
561.263	-38.91141
561.468	-6.14391
561.674	-43.00734
561.879	22.52766
562.084	-8.19187
562.289	-36.86344
562.495	32.7675
562.7	20.47969
562.905	55.29516
563.11	20.47969
563.315	73.72687
563.521	-20.47969
563.726	-18.43172
563.931	-16.38375
564.136	51.19922
564.341	71.67891
564.546	24.57562
564.751	-69.63094
564.956	83.96672
565.162	-65.535
565.367	-77.82281
565.572	40.95937
565.777	-24.57563
565.982	-16.38375
566.187	-73.72688
566.392	-26.62359
566.597	16.38375
566.802	-34.81547
567.007	57.34312
567.212	14.33578
567.417	6.14391
567.622	-18.43172
567.827	49.15125
568.031	-6.14391
568.236	88.06266
568.441	47.10328
568.646	43.00734
568.851	12.28781
569.056	45.05531
569.261	-36.86344
569.466	16.38375
569.67	28.67156
569.875	-4.09594
570.08	22.52766
570.285	-4.09594
570.49	-20.47969
570.694	-28.67156
570.899	16.38375
571.104	59.39109
571.309	49.15125
571.513	32.7675
571.718	-61.43906
571.923	51.19922
572.128	26.62359
572.332	34.81547
572.537	32.7675
572.742	36.86344
572.946	8.19187
573.151	-26.62359
573.355	-18.43172
573.56	-22.52766
573.765	-14.33578
573.969	61.43906
574.174	-2.04797
574.378	0
574.583	40.95937
574.788	-24.57563
574.992	-24.57563
575.197	100.35047
575.401	32.7675
575.606	28.67156
575.81	14.33578
576.015	18.43172
576.219	69.63094
576.424	14.33578
576.628	-14.33578
576.832	30.71953
577.037	-6.14391
577.241	-53.24719
577.446	26.62359
577.65	16.38375
577.854	55.29516
578.059	-45.05531
578.263	30.71953
578.467	-6.14391
578.672	-43.00734
578.876	34.81547
579.08	20.47969
579.285	26.62359
579.489	2.04797
579.693	38.91141
579.898	-2.04797
580.102	34.81547
580.306	26.62359
580.51	55.29516
580.715	-28.67156
580.919	-16.38375
581.123	12.28781
581.327	47.10328
581.531	-2.04797
581.735	61.43906
581.94	-12.28781
582.144	30.71953
582.348	34.81547
582.552	34.81547
582.756	49.15125
582.96	40.95937
583.164	-49.15125
583.368	53.24719
583.572	-45.05531
583.776	47.10328
583.98	-20.47969
584.185	-40.95938
584.389	53.24719
584.593	28.67156
584.797	67.58297
585	0
585.204	16.38375
585.408	-12.28781
585.612	6.14391
585.816	10.23984
586.02	2.04797
586.224	-40.95938
586.428	53.24719
586.632	-12.28781
586.836	36.86344
587.04	6.14391
587.244	49.15125
587.447	86.01469
587.651	45.05531
587.855	45.05531
588.059	18.43172
588.263	26.62359
588.466	38.91141
588.67	-43.00734
588.874	51.19922
589.078	22.52766
589.281	-24.57563
589.485	-4.09594
589.689	-14.33578
589.893	0
590.096	14.33578
590.3	28.67156
590.504	-34.81547
590.707	14.33578
590.911	0
591.115	59.39109
591.318	65.535
591.522	-6.14391
591.725	2.04797
591.929	2.04797
592.133	-34.81547
592.336	-24.57563
592.54	-8.19187
592.743	34.81547
592.947	-63.48703
593.15	43.00734
593.354	-6.14391
593.557	20.47969
593.761	16.38375
593.964	18.43172
594.168	69.63094
594.371	22.52766
594.575	-12.28781
594.778	0
594.981	2.04797
595.185	-30.71953
595.388	30.71953
595.592	16.38375
595.795	59.39109
595.998	14.33578
596.202	-14.33578
596.405	-28.67156
596.608	-53.24719
596.812	47.10328
597.015	32.7675
597.218	-2.04797
597.421	4.09594
597.625	-4.09594
597.828	8.19187
598.031	-18.43172
598.234	-8.19187
598.438	-77.82281
598.641	-22.52766
598.844	4.09594
599.047	43.00734
599.25	-26.62359
599.453	-53.24719
599.657	-38.91141
599.86	73.72687
600.063	24.57562
600.266	-30.71953
600.469	-2.04797
600.672	-20.47969
600.875	14.33578
601.078	0
601.281	-4.09594
601.484	-10.23984
601.687	59.39109
601.89	32.7675
602.093	-40.95938
602.296	16.38375
602.499	-2.04797
602.702	-75.77484
602.905	16.38375
603.108	-38.91141
603.311	-18.43172
603.514	-24.57563
603.717	-57.34313
603.92	16.38375
604.123	-32.7675
604.326	-14.33578
604.529	6.14391
604.731	8.19187
604.934	30.71953
605.137	-22.52766
605.34	28.67156
605.543	24.57562
605.745	45.05531
605.948	-43.00734
606.151	96.25453
606.354	-8.19187
606.557	-55.29516
606.759	-6.14391
606.962	45.05531
607.165	-57.34313
607.367	-30.71953
607.57	10.23984
607.773	18.43172
607.975	65.535
608.178	-75.77484
608.381	-30.71953
608.583	24.57562
608.786	65.535
608.989	57.34312
609.191	69.63094
609.394	-59.39109
609.596	16.38375
609.799	53.24719
610.001	-28.67156
610.204	22.52766
610.406	-26.62359
610.609	-2.04797
610.811	24.57562
611.014	20.47969
611.216	-18.43172
611.419	83.96672
611.621	-43.00734
611.824	12.28781
612.026	-10.23984
612.229	-12.28781
612.431	53.24719
612.633	53.24719
612.836	12.28781
613.038	20.47969
613.24	-32.7675
613.443	-53.24719
613.645	-32.7675
613.847	32.7675
614.05	-14.33578
614.252	49.15125
614.454	43.00734
614.657	-20.47969
614.859	6.14391
615.061	-2.04797
615.263	-26.62359
615.466	36.86344
615.668	20.47969
615.87	38.91141
616.072	-30.71953
616.274	28.67156
616.476	-12.28781
616.679	22.52766
616.881	-20.47969
617.083	-12.28781
617.285	-24.57563
617.487	26.62359
617.689	28.67156
617.891	83.96672
618.093	71.67891
618.295	-12.28781
618.497	12.28781
618.699	118.78219
618.901	-8.19187
619.103	-8.19187
619.305	-8.19187
619.507	-16.38375
619.709	22.52766
619.911	-40.95938
620.113	-10.23984
620.315	24.57562
620.517	-36.86344
620.719	32.7675
620.921	6.14391
621.123	-4.09594
621.325	18.43172
621.527	38.91141
621.728	51.19922
621.93	18.43172
622.132	-28.67156
622.334	-22.52766
622.536	-20.47969
622.737	-94.20656
622.939	26.62359
623.141	6.14391
623.343	-12.28781
623.544	16.38375
623.746	-47.10328
623.948	98.3025
624.15	-61.43906
624.351	10.23984
624.553	-10.23984
624.755	53.24719
624.956	22.52766
625.158	71.67891
625.36	51.19922
625.561	10.23984
625.763	-20.47969
625.964	22.52766
626.166	38.91141
626.367	12.28781
626.569	-45.05531
626.771	-69.63094
626.972	28.67156
627.174	34.81547
627.375	18.43172
627.577	-61.43906
627.778	-10.23984
627.98	-24.57563
628.181	0
628.382	86.01469
628.584	-2.04797
628.785	88.06266
628.987	-98.3025
629.188	49.15125
629.39	0
629.591	36.86344
629.792	-43.00734
629.994	-2.04797
630.195	-43.00734
630.396	49.15125
630.598	0
630.799	-4.09594
631	18.43172
631.201	0
631.403	20.47969
631.604	24.57562
631.805	-24.57563
632.006	-8.19187
632.208	40.95937
632.409	43.00734
632.61	22.52766
632.811	51.19922
633.012	22.52766
633.214	40.95937
633.415	12.28781
633.616	-20.47969
633.817	14.33578
634.018	-4.09594
634.219	57.34312
634.42	28.67156
634.621	-40.95938
634.822	-16.38375
635.023	-26.62359
635.224	-65.535
635.425	-14.33578
635.626	45.05531
635.827	0
636.028	-40.95938
636.229	-18.43172
636.43	6.14391
636.631	4.09594
636.832	10.23984
637.033	20.47969
637.234	-20.47969
637.435	73.72687
637.636	0
637.837	2.04797
638.037	22.52766
638.238	14.33578
638.439	-26.62359
638.64	-20.47969
638.841	-81.91875
639.042	-22.52766
639.242	49.15125
639.443	57.34312
639.644	-12.28781
639.845	-4.09594
640.045	-16.38375
640.246	67.58297
640.447	-32.7675
640.648	16.38375
640.848	22.52766
641.049	8.19187
641.25	0
641.45	22.52766
641.651	-36.86344
641.851	92.15859
642.052	4.09594
642.253	2.04797
642.453	-38.91141
642.654	-22.52766
642.854	0
643.055	6.14391
643.255	-16.38375
643.456	26.62359
643.656	-30.71953
643.857	10.23984
644.057	-18.43172
644.258	20.47969
644.458	32.7675
644.659	-36.86344
644.859	83.96672
645.06	22.52766
645.26	-12.28781
645.46	45.05531
645.661	-24.57563
645.861	-18.43172
646.062	8.19187
646.262	-55.29516
646.462	24.57562
646.663	-26.62359
646.863	63.48703
647.063	-32.7675
647.263	90.11063
647.464	0
647.664	-43.00734
647.864	88.06266
648.064	-73.72688
648.265	59.39109
648.465	-59.39109
648.665	32.7675
648.865	30.71953
649.065	20.47969
649.266	-30.71953
649.466	14.33578
649.666	30.71953
649.866	12.28781
650.066	45.05531
650.266	-61.43906
650.466	18.43172
650.666	96.25453
650.866	-51.19922
651.067	12.28781
651.267	-59.39109
651.467	-10.23984
651.667	47.10328
651.867	10.23984
652.067	-4.09594
652.267	40.95937
652.466	-65.535
652.666	-53.24719
652.866	-43.00734
653.066	10.23984
653.266	-24.57563
653.466	20.47969
653.666	-79.87078
653.866	2.04797
654.066	18.43172
654.266	-4.09594
654.465	53.24719
654.665	-8.19187
654.865	-43.00734
655.065	14.33578
655.265	-20.47969
655.464	10.23984
655.664	-55.29516
655.864	32.7675
656.064	6.14391
656.263	2.04797
656.463	22.52766
656.663	16.38375
656.862	22.52766
657.062	69.63094
657.262	10.23984
657.461	-30.71953
657.661	-26.62359
657.861	26.62359
658.06	79.87078
658.26	92.15859
658.459	20.47969
658.659	40.95937
658.858	-26.62359
659.058	-18.43172
659.258	10.23984
659.457	-20.47969
659.657	45.05531
659.856	26.62359
660.056	-26.62359
660.255	-16.38375
660.454	94.20656
660.654	34.81547
660.853	10.23984
661.053	-8.19187
661.252	34.81547
661.452	-14.33578
661.651	61.43906
661.85	-59.39109
662.05	43.00734
662.249	0
662.448	-79.87078
662.648	40.95937
662.847	22.52766
663.046	6.14391
663.245	45.05531
663.445	-18.43172
663.644	22.52766
663.843	8.19187
664.042	-55.29516
664.242	-2.04797
664.441	-8.19187
664.64	4.09594
664.839	67.58297
665.038	-8.19187
665.237	20.47969
665.437	20.47969
665.636	-16.38375
665.835	-4.09594
666.034	12.28781
666.233	-57.34313
666.432	14.33578
666.631	43.00734
666.83	30.71953
667.029	30.71953
667.228	-8.19187
667.427	-6.14391
667.626	30.71953
667.825	-34.81547
668.024	55.29516
668.223	65.535
668.422	-67.58297
668.621	8.19187
668.82	26.62359
669.019	-10.23984
669.218	43.00734
669.417	-6.14391
669.615	-8.19187
669.814	2.04797
670.013	40.95937
670.212	30.71953
670.411	-2.04797
670.609	-69.63094
670.808	20.47969
671.007	16.38375
671.206	-32.7675
671.405	0
671.603	0
671.802	22.52766
672.001	32.7675
672.199	22.52766
672.398	67.58297
672.597	47.10328
672.795	45.05531
672.994	-10.23984
673.193	-18.43172
673.391	47.10328
673.59	2.04797
673.789	12.28781
673.987	10.23984
674.186	-55.29516
674.384	40.95937
674.583	8.19187
674.781	67.58297
674.98	32.7675
675.178	36.86344
675.377	-53.24719
675.575	16.38375
675.774	-6.14391
675.972	96.25453
676.171	94.20656
676.369	16.38375
676.567	2.04797
676.766	55.29516
676.964	-69.63094
677.163	10.23984
677.361	-8.19187
677.559	-14.33578
677.758	-18.43172
677.956	53.24719
678.154	20.47969
678.353	16.38375
678.551	16.38375
678.749	43.00734
678.947	28.67156
679.146	18.43172
679.344	18.43172
679.542	6.14391
679.74	-14.33578
679.938	6.14391
680.137	10.23984
680.335	-16.38375
680.533	12.28781
680.731	22.52766
680.929	45.05531
681.127	-55.29516
681.325	6.14391
681.523	12.28781
681.721	67.58297
681.92	4.09594
682.118	94.20656
682.316	-2.04797
682.514	-102.39844
682.712	-16.38375
682.91	-30.71953
683.108	-32.7675
683.306	40.95937
683.504	59.39109
683.701	-28.67156
683.899	12.28781
684.097	-59.39109
684.295	71.67891
684.493	86.01469
684.691	-10.23984
684.889	18.43172
685.087	45.05531
685.284	-53.24719
685.482	-2.04797
685.68	51.19922
685.878	-20.47969
686.076	-43.00734
686.273	-32.7675
686.471	-32.7675
686.669	65.535
686.867	-22.52766
687.064	18.43172
687.262	-86.01469
687.46	34.81547
687.657	-10.23984
687.855	-45.05531
688.053	-10.23984
688.25	-61.43906
688.448	71.67891
688.646	-43.00734
688.843	14.33578
689.041	-53.24719
689.238	18.43172
689.436	40.95937
689.633	28.67156
689.831	49.15125
690.029	-49.15125
690.226	16.38375
690.424	-18.43172
690.621	22.52766
690.818	-8.19187
691.016	-12.28781
691.213	36.86344
691.411	26.62359
691.608	-57.34313
691.806	71.67891
692.003	-8.19187
692.2	55.29516
692.398	-24.57563
692.595	-22.52766
692.792	-12.28781
692.99	26.62359
693.187	-2.04797
693.384	49.15125
693.582	-4.09594
693.779	-28.67156
693.976	30.71953
694.173	-30.71953
694.371	0
694.568	-12.28781
694.765	12.28781
694.962	-6.14391
695.159	-40.95938
695.356	4.09594
695.554	-10.23984
695.751	36.86344
695.948	-12.28781
696.145	-26.62359
696.342	-24.57563
696.539	26.62359
696.736	8.19187
696.933	2.04797
697.13	-18.43172
697.327	57.34312
697.524	-4.09594
697.721	69.63094
697.918	106.49437
698.115	10.23984
698.312	-26.62359
698.509	16.38375
698.706	59.39109
698.903	40.95937
699.1	36.86344
699.297	-69.63094
699.494	18.43172
699.691	16.38375
699.887	-38.91141
700.084	-4.09594
700.281	-14.33578
700.478	57.34312
700.675	47.10328
700.871	-4.09594
701.068	8.19187
701.265	-38.91141
701.462	-14.33578
701.658	28.67156
701.855	53.24719
702.052	112.63828
702.249	51.19922
702.445	26.62359
702.642	38.91141
702.839	2.04797
703.035	53.24719
703.232	12.28781
703.428	90.11063
703.625	30.71953
703.822	18.43172
704.018	40.95937
704.215	-18.43172
704.411	65.535
704.608	2.04797
704.804	30.71953
705.001	20.47969
705.197	36.86344
705.394	-30.71953
705.59	10.23984
705.787	-20.47969
705.983	32.7675
706.18	-32.7675
706.376	38.91141
706.572	75.77484
706.769	-14.33578
706.965	18.43172
707.161	-16.38375
707.358	-38.91141
707.554	43.00734
707.75	0
707.947	24.57562
708.143	32.7675
708.339	-10.23984
708.536	-36.86344
708.732	-24.57563
708.928	71.67891
709.124	-34.81547
709.32	22.52766
709.517	-40.95938
709.713	-4.09594
709.909	77.82281
710.105	28.67156
710.301	-4.09594
710.497	20.47969
710.693	-2.04797
710.89	-4.09594
711.086	-43.00734
711.282	6.14391
711.478	-4.09594
711.674	0
711.87	32.7675
712.066	-30.71953
712.262	10.23984
712.458	-2.04797
712.654	-22.52766
712.85	28.67156
713.046	-6.14391
713.242	-2.04797
713.438	-61.43906
713.633	-6.14391
713.829	-20.47969
714.025	-71.67891
714.221	59.39109
714.417	24.57562
714.613	18.43172
714.809	12.28781
715.004	61.43906
715.2	-32.7675
715.396	-20.47969
715.592	0
715.788	-24.57563
715.983	-73.72688
716.179	-12.28781
716.375	-55.29516
716.57	-4.09594
716.766	-45.05531
716.962	12.28781
717.157	8.19187
717.353	-43.00734
717.549	20.47969
717.744	-32.7675
717.94	-8.19187
718.136	18.43172
718.331	2.04797
718.527	45.05531
718.722	49.15125
718.918	-61.43906
719.113	12.28781
719.309	16.38375
719.504	47.10328
719.7	-6.14391
719.895	40.95937
720.091	-67.58297
720.286	-57.34313
720.482	16.38375
720.677	32.7675
720.872	-22.52766
721.068	40.95937
721.263	20.47969
721.458	6.14391
721.654	-38.91141
721.849	-67.58297
722.044	4.09594
722.24	-4.09594
722.435	43.00734
722.63	43.00734
722.826	14.33578
723.021	18.43172
723.216	-24.57563
723.411	20.47969
723.606	18.43172
723.802	-30.71953
723.997	-4.09594
724.192	-18.43172
724.387	-20.47969
724.582	2.04797
724.777	-4.09594
724.973	-2.04797
725.168	75.77484
725.363	-59.39109
725.558	-20.47969
725.753	-18.43172
725.948	12.28781
726.143	-47.10328
726.338	22.52766
726.533	8.19187
726.728	75.77484
726.923	71.67891
727.118	12.28781
727.313	-4.09594
727.508	-67.58297
727.703	12.28781
727.897	-20.47969
728.092	-6.14391
728.287	-32.7675
728.482	24.57562
728.677	47.10328
728.872	-28.67156
729.067	30.71953
729.261	-32.7675
729.456	28.67156
729.651	6.14391
729.846	10.23984
730.04	-10.23984
730.235	-4.09594
730.43	22.52766
730.625	98.3025
730.819	73.72687
731.014	22.52766
731.209	-26.62359
731.403	-45.05531
731.598	34.81547
731.793	6.14391
731.987	-77.82281
732.182	55.29516
732.376	4.09594
732.571	18.43172
732.765	-59.39109
732.96	-22.52766
733.155	51.19922
733.349	22.52766
733.544	-49.15125
733.738	-59.39109
733.932	-18.43172
734.127	28.67156
734.321	36.86344
734.516	63.48703
734.71	-30.71953
734.905	-18.43172
735.099	32.7675
735.293	47.10328
735.488	24.57562
735.682	45.05531
735.876	-32.7675
736.071	8.19187
736.265	8.19187
736.459	-4.09594
736.654	-28.67156
736.848	24.57562
737.042	106.49437
737.236	20.47969
737.431	8.19187
737.625	24.57562
737.819	-10.23984
738.013	-36.86344
738.207	-49.15125
738.401	4.09594
738.596	-24.57563
738.79	-24.57563
738.984	45.05531
739.178	47.10328
739.372	10.23984
739.566	0
739.76	6.14391
739.954	6.14391
740.148	8.19187
740.342	-10.23984
740.536	-10.23984
740.73	-26.62359
740.924	-77.82281
741.118	45.05531
741.312	-14.33578
741.506	51.19922
741.7	40.95937
741.894	12.28781
742.087	-12.28781
742.281	-12.28781
742.475	20.47969
742.669	-49.15125
742.863	-8.19187
743.057	40.95937
743.25	75.77484
743.444	36.86344
743.638	28.67156
743.832	-26.62359
744.025	-12.28781
744.219	-34.81547
744.413	100.35047
744.607	30.71953
744.8	40.95937
744.994	-8.19187
745.188	22.52766
745.381	-10.23984
745.575	-36.86344
745.768	30.71953
745.962	6.14391
746.156	18.43172
746.349	36.86344
746.543	24.57562
746.736	43.00734
746.93	-6.14391
747.123	-36.86344
747.317	-8.19187
747.51	20.47969
747.704	26.62359
747.897	40.95937
748.091	-55.29516
748.284	-63.48703
748.478	53.24719
748.671	-38.91141
748.864	53.24719
749.058	-38.91141
749.251	51.19922
749.444	-14.33578
749.638	-110.59031
749.831	49.15125
750.024	-22.52766
750.218	-20.47969
750.411	22.52766
750.604	-10.23984
750.797	-6.14391
750.991	-28.67156
751.184	22.52766
751.377	10.23984
751.57	20.47969
751.763	-30.71953
751.956	-45.05531
752.15	-79.87078
752.343	-36.86344
752.536	-10.23984
752.729	69.63094
752.922	22.52766
753.115	34.81547
753.308	79.87078
753.501	-22.52766
753.694	18.43172
753.887	34.81547
754.08	22.52766
754.273	-28.67156
754.466	-12.28781
754.659	-22.52766
754.852	2.04797
755.045	-6.14391
755.238	-61.43906
755.431	53.24719
755.624	-6.14391
755.817	-12.28781
756.009	57.34312
756.202	-47.10328
756.395	-8.19187
756.588	4.09594
756.781	40.95937
756.973	16.38375
757.166	-22.52766
757.359	40.95937
757.552	14.33578
757.744	57.34312
757.937	-4.09594
758.13	45.05531
758.322	4.09594
758.515	2.04797
758.708	-55.29516
758.9	32.7675
759.093	6.14391
759.286	-24.57563
759.478	-6.14391
759.671	-69.63094
759.863	-30.71953
760.056	30.71953
760.248	88.06266
760.441	-28.67156
760.633	-18.43172
760.826	-69.63094
761.018	20.47969
761.211	-2.04797
761.403	-16.38375
761.596	-6.14391
761.788	-20.47969
761.981	-8.19187
762.173	26.62359
762.365	32.7675
762.558	-88.06266
762.75	24.57562
762.942	22.52766
763.135	-61.43906
763.327	-18.43172
763.519	-49.15125
763.712	-8.19187
763.904	26.62359
764.096	6.14391
764.288	-28.67156
764.481	51.19922
764.673	-26.62359
764.865	-28.67156
765.057	40.95937
765.249	-55.29516
765.441	-2.04797
765.634	-38.91141
765.826	12.28781
766.018	-61.43906
766.21	-22.52766
766.402	-16.38375
766.594	-40.95938
766.786	-4.09594
766.978	22.52766
767.17	4.09594
767.362	-10.23984
767.554	-24.57563
767.746	-65.535
767.938	8.19187
768.13	24.57562
768.322	24.57562
768.514	-4.09594
768.706	65.535
768.898	-38.91141
769.089	-40.95938
769.281	-77.82281
769.473	-34.81547
769.665	-16.38375
769.857	8.19187
770.049	26.62359
770.24	-14.33578
770.432	-65.535
770.624	-8.19187
770.816	57.34312
771.007	-30.71953
771.199	18.43172
771.391	57.34312
771.582	38.91141
771.774	-6.14391
771.966	53.24719
772.157	-55.29516
772.349	12.28781
772.541	10.23984
772.732	30.71953
772.924	0
773.115	-51.19922
773.307	12.28781
773.498	2.04797
773.69	24.57562
773.881	-4.09594
774.073	14.33578
774.264	2.04797
774.456	-12.28781
774.647	45.05531
774.839	55.29516
775.03	20.47969
775.221	-47.10328
775.413	63.48703
775.604	8.19187
775.796	65.535
775.987	-73.72688
776.178	38.91141
776.37	-6.14391
776.561	6.14391
776.752	30.71953
776.943	-20.47969
777.135	-20.47969
777.326	28.67156
777.517	-14.33578
777.708	-20.47969
777.899	10.23984
778.091	12.28781
778.282	2.04797
778.473	36.86344
778.664	36.86344
778.855	28.67156
779.046	-24.57563
779.237	-63.48703
779.428	40.95937
779.62	-34.81547
779.811	16.38375
780.002	-32.7675
780.193	-36.86344
780.384	4.09594
780.575	-2.04797
780.766	32.7675
780.957	-8.19187
781.148	65.535
781.338	28.67156
781.529	-40.95938
781.72	-14.33578
781.911	-16.38375
782.102	6.14391
782.293	-24.57563
782.484	38.91141
782.674	-16.38375
782.865	-45.05531
783.056	4.09594
783.247	-40.95938
783.438	-6.14391
783.628	-8.19187
783.819	32.7675
784.01	32.7675
784.201	12.28781
784.391	-8.19187
784.582	-2.04797
784.773	36.86344
784.963	-20.47969
785.154	38.91141
785.344	51.19922
785.535	24.57562
785.726	4.09594
785.916	10.23984
786.107	26.62359
786.297	-16.38375
786.488	6.14391
786.678	-20.47969
786.869	-10.23984
787.059	59.39109
787.25	47.10328
787.44	51.19922
787.631	8.19187
787.821	8.19187
788.012	51.19922
788.202	-49.15125
788.392	22.52766
788.583	-10.23984
788.773	59.39109
788.963	61.43906
789.154	102.39844
789.344	-18.43172
789.534	36.86344
789.724	36.86344
789.915	-24.57563
790.105	18.43172
790.295	16.38375
790.485	20.47969
790.676	43.00734
790.866	32.7675
791.056	28.67156
791.246	-32.7675
791.436	45.05531
791.626	-65.535
791.816	22.52766
792.007	16.38375
792.197	40.95937
792.387	-20.47969
792.577	0
792.767	-18.43172
792.957	-18.43172
793.147	81.91875
793.337	6.14391
793.527	12.28781
793.717	22.52766
793.907	57.34312
794.097	36.86344
794.287	20.47969
794.476	55.29516
794.666	96.25453
794.856	-32.7675
795.046	-30.71953
795.236	-24.57563
795.426	81.91875
795.615	20.47969
795.805	-51.19922
795.995	28.67156
796.185	-83.96672
796.375	45.05531
796.564	-32.7675
796.754	-24.57563
796.944	-18.43172
797.133	6.14391
797.323	20.47969
797.513	-51.19922
797.702	6.14391
797.892	43.00734
798.082	0
798.271	30.71953
798.461	47.10328
798.65	-4.09594
798.84	16.38375
799.029	16.38375
799.219	0
799.408	-14.33578
799.598	30.71953
799.787	73.72687
799.977	-4.09594
800.166	10.23984
800.356	32.7675
800.545	-14.33578
800.735	-16.38375
800.924	53.24719
801.113	0
801.303	-4.09594
801.492	77.82281
801.681	45.05531
801.871	24.57562
802.06	-16.38375
802.249	53.24719
802.438	47.10328
802.628	16.38375
802.817	77.82281
803.006	-26.62359
803.195	53.24719
803.385	40.95937
803.574	14.33578
803.763	24.57562
803.952	-4.09594
804.141	-24.57563
804.33	-57.34313
804.519	-36.86344
804.708	86.01469
804.897	-4.09594
805.087	4.09594
805.276	-38.91141
805.465	-22.52766
805.654	14.33578
805.843	-20.47969
806.032	14.33578
806.22	-45.05531
806.409	26.62359
806.598	26.62359
806.787	-24.57563
806.976	65.535
807.165	22.52766
807.354	14.33578
807.543	12.28781
807.732	32.7675
807.92	-14.33578
808.109	96.25453
808.298	-8.19187
808.487	30.71953
808.676	26.62359
808.864	-32.7675
809.053	28.67156
809.242	-49.15125
809.43	34.81547
809.619	-30.71953
809.808	79.87078
809.996	57.34312
810.185	36.86344
810.374	-8.19187
810.562	2.04797
810.751	4.09594
810.939	20.47969
811.128	53.24719
811.317	22.52766
811.505	-4.09594
811.694	32.7675
811.882	-4.09594
812.071	49.15125
812.259	61.43906
812.448	26.62359
812.636	10.23984
812.824	57.34312
813.013	-22.52766
813.201	51.19922
813.39	16.38375
813.578	-32.7675
813.766	36.86344
813.955	8.19187
814.143	51.19922
814.331	51.19922
814.519	12.28781
814.708	73.72687
814.896	-61.43906
815.084	32.7675
815.272	16.38375
815.461	36.86344
815.649	-26.62359
815.837	0
816.025	18.43172
816.213	-20.47969
816.401	-8.19187
816.59	-10.23984
816.778	69.63094
816.966	-43.00734
817.154	-73.72688
817.342	6.14391
817.53	32.7675
817.718	20.47969
817.906	45.05531
818.094	26.62359
818.282	4.09594
818.47	28.67156
818.658	-34.81547
818.846	6.14391
819.034	32.7675
819.222	-10.23984
819.409	-22.52766
819.597	-22.52766
819.785	-45.05531
819.973	-8.19187
820.161	34.81547
820.349	12.28781
820.536	-36.86344
820.724	57.34312
820.912	-32.7675
821.1	-12.28781
821.287	-49.15125
821.475	20.47969
821.663	22.52766
821.85	10.23984
822.038	-20.47969
822.226	4.09594
822.413	14.33578
822.601	-38.91141
822.789	73.72687
822.976	26.62359
823.164	16.38375
823.351	10.23984
823.539	71.67891
823.726	-77.82281
823.914	26.62359
824.101	45.05531
824.289	-34.81547
824.476	-26.62359
824.664	10.23984
824.851	45.05531
825.039	51.19922
825.226	-45.05531
825.413	34.81547
825.601	-59.39109
825.788	36.86344
825.976	-32.7675
826.163	-34.81547
826.35	8.19187
826.537	-12.28781
826.725	8.19187
826.912	14.33578
827.099	-4.09594
827.286	-10.23984
827.474	47.10328
827.661	16.38375
827.848	-83.96672
828.035	90.11063
828.222	-81.91875
828.409	34.81547
828.597	-32.7675
828.784	55.29516
828.971	18.43172
829.158	-34.81547
829.345	55.29516
829.532	-14.33578
829.719	28.67156
829.906	12.28781
830.093	-67.58297
830.28	32.7675
830.467	-53.24719
830.654	20.47969
830.841	-18.43172
831.028	55.29516
831.215	-28.67156
831.402	40.95937
831.588	18.43172
831.775	-24.57563
831.962	-88.06266
832.149	59.39109
832.336	0
832.522	16.38375
832.709	-30.71953
832.896	22.52766
833.083	-8.19187
833.269	-10.23984
833.456	53.24719
833.643	4.09594
833.83	30.71953
834.016	-100.35047
834.203	-10.23984
834.39	49.15125
834.576	-65.535
834.763	-32.7675
834.949	-57.34313
835.136	67.58297
835.322	-81.91875
835.509	4.09594
835.695	63.48703
835.882	-10.23984
836.068	43.00734
836.255	51.19922
836.441	-38.91141
836.628	30.71953
836.814	-12.28781
837.001	-36.86344
837.187	-16.38375
837.373	14.33578
837.56	32.7675
837.746	-12.28781
837.933	-36.86344
838.119	-28.67156
838.305	-14.33578
838.491	-16.38375
838.678	28.67156
838.864	8.19187
839.05	106.49437
839.236	16.38375
839.423	77.82281
839.609	6.14391
839.795	59.39109
839.981	0
840.167	-16.38375
840.353	-43.00734
840.54	22.52766
840.726	2.04797
840.912	22.52766
841.098	-34.81547
841.284	20.47969
841.47	4.09594
841.656	51.19922
841.842	-12.28781
842.028	-20.47969
842.214	47.10328
842.4	-30.71953
842.586	26.62359
842.772	55.29516
842.958	-73.72688
843.143	45.05531
843.329	-40.95938
843.515	-14.33578
843.701	63.48703
843.887	34.81547
844.073	38.91141
844.258	24.57562
844.444	-4.09594
844.63	32.7675
844.816	2.04797
845.001	10.23984
845.187	-59.39109
845.373	24.57562
845.559	-45.05531
845.744	-71.67891
845.93	6.14391
846.115	2.04797
846.301	16.38375
846.487	-4.09594
846.672	22.52766
846.858	-8.19187
847.043	20.47969
847.229	81.91875
847.414	-2.04797
847.6	-6.14391
847.785	61.43906
847.971	59.39109
848.156	102.39844
848.342	61.43906
848.527	-22.52766
848.713	-4.09594
848.898	20.47969
849.083	-32.7675
849.269	-40.95938
849.454	22.52766
849.639	-6.14391
849.825	43.00734
850.01	-36.86344
850.195	-20.47969
850.381	-4.09594
850.566	-49.15125
850.751	43.00734
850.936	-45.05531
851.122	49.15125
851.307	63.48703
851.492	0
851.677	88.06266
851.862	38.91141
852.047	-16.38375
852.232	2.04797
852.417	-32.7675
852.603	-2.04797
852.788	-69.63094
852.973	51.19922
853.158	51.19922
853.343	34.81547
853.528	-30.71953
853.713	24.57562
853.898	0
854.083	-47.10328
854.267	34.81547
854.452	53.24719
854.637	-10.23984
854.822	-24.57563
855.007	0
855.192	-10.23984
855.377	14.33578
855.562	49.15125
855.746	20.47969
855.931	-18.43172
856.116	-20.47969
856.301	-6.14391
856.485	8.19187
856.67	34.81547
856.855	-20.47969
857.039	-38.91141
857.224	0
857.409	-4.09594
857.593	63.48703
857.778	16.38375
857.963	45.05531
858.147	32.7675
858.332	-26.62359
858.516	51.19922
858.701	-45.05531
858.885	28.67156
859.07	2.04797
859.254	43.00734
859.439	8.19187
859.623	38.91141
859.808	22.52766
859.992	28.67156
860.177	8.19187
860.361	22.52766
860.545	-49.15125
860.73	65.535
860.914	22.52766
861.098	-2.04797
861.283	30.71953
861.467	49.15125
861.651	51.19922
861.836	28.67156
862.02	14.33578
862.204	-34.81547
862.388	16.38375
862.572	40.95937
862.757	-20.47969
862.941	18.43172
863.125	53.24719
863.309	2.04797
863.493	-59.39109
863.677	40.95937
863.861	4.09594
864.045	-6.14391
864.23	4.09594
864.414	14.33578
864.598	-47.10328
864.782	53.24719
864.966	4.09594
865.15	32.7675
865.334	16.38375
865.517	-38.91141
865.701	34.81547
865.885	-32.7675
866.069	24.57562
866.253	28.67156
866.437	-22.52766
866.621	18.43172
866.805	18.43172
866.988	-4.09594
867.172	67.58297
867.356	-4.09594
867.54	36.86344
867.723	10.23984
867.907	77.82281
868.091	38.91141
868.275	-18.43172
868.458	6.14391
868.642	-45.05531
868.826	81.91875
869.009	8.19187
869.193	36.86344
869.376	12.28781
869.56	-45.05531
869.744	-45.05531
869.927	-4.09594
870.111	49.15125
870.294	34.81547
870.478	-6.14391
870.661	-10.23984
870.845	-32.7675
871.028	-6.14391
871.211	4.09594
871.395	65.535
871.578	20.47969
871.762	49.15125
871.945	-71.67891
872.128	12.28781
872.312	22.52766
872.495	57.34312
872.678	28.67156
872.862	12.28781
873.045	-16.38375
873.228	36.86344
873.411	28.67156
873.595	63.48703
873.778	32.7675
873.961	0
874.144	-28.67156
874.327	38.91141
874.51	-16.38375
874.694	-14.33578
874.877	-22.52766
875.06	43.00734
875.243	28.67156
875.426	-6.14391
875.609	-47.10328
875.792	28.67156
875.975	75.77484
876.158	-16.38375
876.341	-69.63094
876.524	36.86344
876.707	-40.95938
876.89	30.71953
877.073	-8.19187
877.255	8.19187
877.438	-6.14391
877.621	-24.57563
877.804	26.62359
877.987	32.7675
878.17	-12.28781
878.352	38.91141
878.535	8.19187
878.718	-16.38375
878.901	-20.47969
879.083	16.38375
879.266	30.71953
879.449	24.57562
879.631	-16.38375
879.814	16.38375
879.997	-16.38375
880.179	6.14391
880.362	4.09594
880.545	-4.09594
880.727	4.09594
880.91	8.19187
881.092	-18.43172
881.275	67.58297
881.457	0
881.64	-2.04797
881.822	2.04797
882.005	-34.81547
882.187	47.10328
882.37	-12.28781
882.552	-10.23984
882.734	16.38375
882.917	-10.23984
883.099	22.52766
883.281	59.39109
883.464	16.38375
883.646	-18.43172
883.828	53.24719
884.011	-83.96672
884.193	0
884.375	40.95937
884.557	-20.47969
884.74	40.95937
884.922	-69.63094
885.104	16.38375
885.286	14.33578
885.468	-26.62359
885.65	12.28781
885.832	-26.62359
886.015	65.535
886.197	40.95937
886.379	-6.14391
886.561	-28.67156
886.743	14.33578
886.925	0
887.107	34.81547
887.289	2.04797
887.471	4.09594
887.653	-18.43172
887.835	14.33578
888.016	-26.62359
888.198	20.47969
888.38	-8.19187
888.562	-49.15125
888.744	-28.67156
888.926	16.38375
889.108	-8.19187
889.289	49.15125
889.471	28.67156
889.653	2.04797
889.835	20.47969
890.016	8.19187
890.198	-67.58297
890.38	59.39109
890.561	8.19187
890.743	28.67156
890.925	-18.43172
891.106	36.86344
891.288	-32.7675
891.469	-100.35047
891.651	61.43906
891.833	47.10328
892.014	18.43172
892.196	14.33578
892.377	100.35047
892.559	32.7675
892.74	30.71953
892.922	16.38375
893.103	-47.10328
893.284	94.20656
893.466	30.71953
893.647	-28.67156
893.829	69.63094
894.01	36.86344
894.191	4.09594
894.373	51.19922
894.554	100.35047
894.735	40.95937
894.916	-49.15125
895.098	16.38375
895.279	-38.91141
895.46	88.06266
895.641	22.52766
895.823	-14.33578
896.004	16.38375
896.185	36.86344
896.366	59.39109
896.547	-26.62359
896.728	-22.52766
896.909	18.43172
897.09	14.33578
897.271	26.62359
897.452	65.535
897.633	-8.19187
897.814	-6.14391
897.995	12.28781
898.176	4.09594
898.357	20.47969
898.538	16.38375
898.719	2.04797
898.9	-8.19187
899.081	22.52766
899.262	-12.28781
899.443	-24.57563
899.623	-32.7675
899.804	43.00734
899.985	10.23984
900.166	-10.23984
900.347	16.38375
900.527	-59.39109
900.708	-24.57563
900.889	0
901.07	20.47969
901.25	-32.7675
901.431	14.33578
901.611	32.7675
901.792	24.57562
901.973	20.47969
902.153	6.14391
902.334	-43.00734
902.514	114.68625
902.695	-12.28781
902.876	-38.91141
903.056	-18.43172
903.237	67.58297
903.417	-34.81547
903.597	-18.43172
903.778	26.62359
903.958	43.00734
904.139	-16.38375
904.319	40.95937
904.499	43.00734
904.68	-2.04797
904.86	-34.81547
905.04	-4.09594
905.221	6.14391
905.401	57.34312
905.581	-40.95938
905.762	-57.34313
905.942	-4.09594
906.122	55.29516
906.302	102.39844
906.482	53.24719
906.663	0
906.843	73.72687
907.023	12.28781
907.203	26.62359
907.383	-24.57563
907.563	2.04797
907.743	20.47969
907.923	12.28781
908.103	57.34312
908.283	-24.57563
908.463	55.29516
908.643	4.09594
908.823	-28.67156
909.003	4.09594
909.183	16.38375
909.363	49.15125
909.543	4.09594
909.723	-36.86344
909.903	98.3025
910.082	-51.19922
910.262	45.05531
910.442	-47.10328
910.622	-65.535
910.802	-34.81547
910.981	47.10328
911.161	-8.19187
911.341	-63.48703
911.521	4.09594
911.7	-4.09594
911.88	-18.43172
912.06	8.19187
912.239	-14.33578
912.419	28.67156
912.598	49.15125
912.778	61.43906
912.958	65.535
913.137	-2.04797
913.317	8.19187
913.496	0
913.676	0
913.855	36.86344
914.035	51.19922
914.214	-71.67891
914.393	-26.62359
914.573	61.43906
914.752	34.81547
914.932	-49.15125
915.111	-12.28781
915.29	40.95937
915.47	2.04797
915.649	12.28781
915.828	-59.39109
916.008	-81.91875
916.187	-6.14391
916.366	-26.62359
916.545	0
916.724	-2.04797
916.904	-18.43172
917.083	-65.535
917.262	18.43172
917.441	57.34312
917.62	-69.63094
917.799	-28.67156
917.978	32.7675
918.158	30.71953
918.337	55.29516
918.516	-51.19922
918.695	22.52766
918.874	-43.00734
919.053	38.91141
919.232	-6.14391
919.41	36.86344
919.589	4.09594
919.768	69.63094
919.947	-92.15859
920.126	63.48703
920.305	0
920.484	-40.95938
920.663	4.09594
920.841	24.57562
921.02	6.14391
921.199	-22.52766
921.378	67.58297
921.556	-53.24719
921.735	12.28781
921.914	20.47969
922.093	38.91141
922.271	-20.47969
922.45	49.15125
922.629	16.38375
922.807	8.19187
922.986	-16.38375
923.164	51.19922
923.343	49.15125
923.521	8.19187
923.7	12.28781
923.878	20.47969
924.057	26.62359
924.235	-8.19187
924.414	-57.34313
924.592	10.23984
924.771	36.86344
924.949	-10.23984
925.128	-10.23984
925.306	-26.62359
925.484	20.47969
925.663	0
925.841	-12.28781
926.019	-40.95938
926.198	18.43172
926.376	16.38375
926.554	-10.23984
926.732	22.52766
926.91	61.43906
927.089	-65.535
927.267	-4.09594
927.445	-18.43172
927.623	32.7675
927.801	30.71953
927.979	8.19187
928.158	65.535
928.336	-8.19187
928.514	73.72687
928.692	-26.62359
928.87	38.91141
929.048	69.63094
929.226	69.63094
929.404	14.33578
929.582	16.38375
929.76	-18.43172
929.937	47.10328
930.115	36.86344
930.293	18.43172
930.471	-81.91875
930.649	36.86344
930.827	59.39109
931.005	-34.81547
931.182	8.19187
931.36	-20.47969
931.538	24.57562
931.716	30.71953
931.893	26.62359
932.071	43.00734
932.249	49.15125
932.426	-32.7675
932.604	12.28781
932.782	10.23984
932.959	12.28781
933.137	-59.39109
933.315	10.23984
933.492	8.19187
933.67	0
933.847	-6.14391
934.025	8.19187
934.202	6.14391
934.38	-18.43172
934.557	-141.30984
934.735	28.67156
934.912	-24.57563
935.089	-2.04797
935.267	-49.15125
935.444	-14.33578
935.622	10.23984
935.799	16.38375
935.976	4.09594
936.154	-8.19187
936.331	22.52766
936.508	-12.28781
936.685	83.96672
936.863	22.52766
937.04	40.95937
937.217	18.43172
937.394	6.14391
937.571	-4.09594
937.748	-55.29516
937.926	2.04797
938.103	49.15125
938.28	-122.87813
938.457	-26.62359
938.634	51.19922
938.811	-65.535
938.988	83.96672
939.165	-4.09594
939.342	88.06266
939.519	32.7675
939.696	-16.38375
939.873	-8.19187
940.05	63.48703
940.227	-45.05531
940.404	71.67891
940.58	16.38375
940.757	16.38375
940.934	53.24719
941.111	47.10328
941.288	51.19922
941.464	-40.95938
941.641	-38.91141
941.818	38.91141
941.995	-12.28781
942.171	-73.72688
942.348	6.14391
942.525	45.05531
942.701	-10.23984
942.878	-57.34313
943.055	-10.23984
943.231	-2.04797
943.408	40.95937
943.584	-57.34313
943.761	38.91141
943.937	77.82281
944.114	-12.28781
944.29	63.48703
944.467	51.19922
944.643	0
944.82	6.14391
944.996	-38.91141
945.173	36.86344
945.349	-22.52766
945.525	6.14391
945.702	-38.91141
945.878	10.23984
946.054	16.38375
946.231	-32.7675
946.407	-34.81547
946.583	-53.24719
946.759	12.28781
946.936	20.47969
947.112	10.23984
947.288	-18.43172
947.464	34.81547
947.64	34.81547
947.816	6.14391
947.992	-18.43172
948.169	-4.09594
948.345	-16.38375
948.521	51.19922
948.697	-32.7675
948.873	-49.15125
949.049	2.04797
949.225	28.67156
949.401	71.67891
949.577	34.81547
949.753	-22.52766
949.929	2.04797
950.104	-14.33578
950.28	-8.19187
950.456	-2.04797
950.632	63.48703
950.808	-2.04797
950.984	-20.47969
951.159	30.71953
951.335	-10.23984
951.511	4.09594
951.687	-24.57563
951.862	0
952.038	55.29516
952.214	0
952.39	-8.19187
952.565	26.62359
952.741	-40.95938
952.916	-55.29516
953.092	-4.09594
953.268	-20.47969
953.443	26.62359
953.619	51.19922
953.794	10.23984
953.97	-10.23984
954.145	26.62359
954.321	24.57562
954.496	83.96672
954.672	-100.35047
954.847	20.47969
955.022	-10.23984
955.198	-28.67156
955.373	22.52766
955.548	-26.62359
955.724	-4.09594
955.899	20.47969
956.074	22.52766
956.25	2.04797
956.425	36.86344
956.6	79.87078
956.775	53.24719
956.951	-14.33578
957.126	-38.91141
957.301	-18.43172
957.476	-20.47969
957.651	2.04797
957.826	-18.43172
958.001	20.47969
958.176	-6.14391
958.352	-30.71953
958.527	40.95937
958.702	-20.47969
958.877	-90.11063
959.052	28.67156
959.227	28.67156
959.401	-26.62359
959.576	-12.28781
959.751	0
959.926	53.24719
960.101	24.57562
960.276	24.57562
960.451	-65.535
960.626	8.19187
960.8	30.71953
960.975	0
961.15	40.95937
961.325	28.67156
961.499	-8.19187
961.674	-26.62359
961.849	92.15859
962.023	-16.38375
962.198	28.67156
962.373	-59.39109
962.547	18.43172
962.722	-20.47969
962.897	2.04797
963.071	-8.19187
963.246	8.19187
963.42	28.67156
963.595	-20.47969
963.769	-12.28781
963.944	-51.19922
964.118	32.7675
964.293	-71.67891
964.467	20.47969
964.641	-14.33578
964.816	-8.19187
964.99	18.43172
965.165	-45.05531
965.339	-30.71953
965.513	-6.14391
965.687	-6.14391
965.862	4.09594
966.036	30.71953
966.21	22.52766
966.384	0
966.559	-18.43172
966.733	-6.14391
966.907	8.19187
967.081	12.28781
967.255	20.47969
967.429	2.04797
967.604	2.04797
967.778	4.09594
967.952	47.10328
968.126	-40.95938
968.3	18.43172
968.474	-12.28781
968.648	-22.52766
968.822	-83.96672
968.996	26.62359
969.17	-47.10328
969.343	-10.23984
969.517	20.47969
969.691	-61.43906
969.865	2.04797
970.039	2.04797
970.213	16.38375
970.387	32.7675
970.56	36.86344
970.734	12.28781
970.908	6.14391
971.082	36.86344
971.255	-2.04797
971.429	16.38375
971.603	2.04797
971.776	8.19187
971.95	-38.91141
972.124	63.48703
972.297	-40.95938
972.471	28.67156
972.644	-47.10328
972.818	4.09594
972.991	14.33578
973.165	4.09594
973.338	20.47969
973.512	45.05531
973.685	-26.62359
973.859	-61.43906
974.032	10.23984
974.206	-8.19187
974.379	-28.67156
974.552	4.09594
974.726	63.48703
974.899	12.28781
975.072	63.48703
975.246	26.62359
975.419	-69.63094
975.592	0
975.765	8.19187
975.939	51.19922
976.112	-51.19922
976.285	-43.00734
976.458	30.71953
976.631	-47.10328
976.804	30.71953
976.977	65.535
977.151	8.19187
977.324	0
977.497	20.47969
977.67	106.49437
977.843	24.57562
978.016	22.52766
978.189	-49.15125
978.362	-45.05531
978.535	-14.33578
978.707	-28.67156
978.88	36.86344
979.053	-14.33578
979.226	22.52766
979.399	24.57562
979.572	20.47969
979.745	-12.28781
979.917	-14.33578
980.09	28.67156
980.263	77.82281
980.436	-18.43172
980.608	69.63094
980.781	28.67156
980.954	20.47969
981.126	57.34312
981.299	6.14391
981.472	4.09594
981.644	26.62359
981.817	6.14391
981.989	34.81547
982.162	4.09594
982.335	110.59031
982.507	14.33578
982.68	-26.62359
982.852	34.81547
983.024	-12.28781
983.197	20.47969
983.369	-20.47969
983.542	-24.57563
983.714	-32.7675
983.886	-20.47969
984.059	-28.67156
984.231	0
984.403	69.63094
984.576	-4.09594
984.748	24.57562
984.92	34.81547
985.093	22.52766
985.265	-49.15125
985.437	14.33578
985.609	-16.38375
985.781	28.67156
985.953	16.38375
986.126	-20.47969
986.298	6.14391
986.47	-24.57563
986.642	-47.10328
986.814	-2.04797
986.986	-47.10328
987.158	-4.09594
987.33	-47.10328
987.502	2.04797
987.674	-67.58297
987.846	8.19187
988.018	36.86344
988.19	0
988.361	28.67156
988.533	-26.62359
988.705	-69.63094
988.877	28.67156
989.049	-77.82281
989.221	90.11063
989.392	4.09594
989.564	45.05531
989.736	-73.72688
989.908	71.67891
990.079	-14.33578
990.251	28.67156
990.423	28.67156
990.594	61.43906
990.766	-32.7675
990.937	-38.91141
991.109	57.34312
991.281	-30.71953
991.452	-24.57563
991.624	2.04797
991.795	-6.14391
991.967	43.00734
992.138	45.05531
992.31	-14.33578
992.481	94.20656
992.652	40.95937
992.824	-10.23984
992.995	-6.14391
993.167	16.38375
993.338	-53.24719
993.509	-12.28781
993.681	57.34312
993.852	32.7675
994.023	22.52766
994.194	-16.38375
994.366	18.43172
994.537	81.91875
994.708	-4.09594
994.879	-32.7675
995.05	49.15125
995.221	34.81547
995.393	-96.25453
995.564	-26.62359
995.735	-45.05531
995.906	-6.14391
996.077	59.39109
996.248	81.91875
996.419	8.19187
996.59	10.23984
996.761	-2.04797
996.932	12.28781
997.103	65.535
997.274	32.7675
997.444	8.19187
997.615	83.96672
997.786	-67.58297
997.957	20.47969
998.128	16.38375
998.299	36.86344
998.469	-6.14391
998.64	59.39109
998.811	-36.86344
998.982	-57.34313
999.152	8.19187
999.323	32.7675
999.494	-4.09594
999.664	-30.71953
999.835	47.10328
1000.006	-45.05531
1000.176	22.52766
1000.347	69.63094
1000.517	88.06266
1000.688	-4.09594
1000.858	-26.62359
1001.029	-30.71953
1001.199	47.10328
1001.37	14.33578
1001.54	65.535
1001.711	-65.535
1001.881	57.34312
1002.051	-18.43172
1002.222	24.57562
1002.392	-102.39844
1002.562	40.95937
1002.733	6.14391
1002.903	43.00734
1003.073	45.05531
1003.244	8.19187
1003.414	-2.04797
1003.584	-24.57563
1003.754	0
1003.924	-28.67156
1004.094	-6.14391
1004.265	40.95937
1004.435	4.09594
1004.605	-69.63094
1004.775	6.14391
1004.945	-14.33578
1005.115	47.10328
1005.285	-20.47969
1005.455	-26.62359
1005.625	10.23984
1005.795	-4.09594
1005.965	22.52766
1006.135	18.43172
1006.305	-20.47969
1006.475	-96.25453
1006.645	34.81547
1006.814	-8.19187
1006.984	65.535
1007.154	43.00734
1007.324	67.58297
1007.494	-12.28781
1007.663	2.04797
1007.833	2.04797
1008.003	-16.38375
1008.172	-34.81547
1008.342	32.7675
1008.512	-26.62359
1008.681	-6.14391
1008.851	51.19922
1009.021	-14.33578
1009.19	-73.72688
1009.36	24.57562
1009.529	2.04797
1009.699	71.67891
1009.868	100.35047
1010.038	-26.62359
1010.207	49.15125
1010.377	65.535
1010.546	10.23984
1010.716	63.48703
1010.885	79.87078
1011.054	-8.19187
1011.224	2.04797
1011.393	-28.67156
1011.562	4.09594
1011.732	-30.71953
1011.901	75.77484
1012.07	61.43906
1012.24	14.33578
1012.409	71.67891
1012.578	40.95937
1012.747	-34.81547
1012.916	-32.7675
1013.085	-4.09594
1013.255	49.15125
1013.424	20.47969
1013.593	-55.29516
1013.762	-106.49438
1013.931	77.82281
1014.1	26.62359
1014.269	40.95937
1014.438	12.28781
1014.607	71.67891
1014.776	14.33578
1014.945	20.47969
1015.114	55.29516
1015.283	0
1015.451	14.33578
1015.62	4.09594
1015.789	20.47969
1015.958	-22.52766
1016.127	28.67156
1016.296	-45.05531
1016.464	0
1016.633	-69.63094
1016.802	-4.09594
1016.971	24.57562
1017.139	-18.43172
1017.308	-2.04797
1017.477	0
1017.645	-55.29516
1017.814	-14.33578
1017.982	6.14391
1018.151	-22.52766
1018.319	-18.43172
1018.488	34.81547
1018.657	22.52766
1018.825	-38.91141
1018.993	24.57562
1019.162	65.535
1019.33	-8.19187
1019.499	30.71953
1019.667	8.19187
1019.836	-6.14391
1020.004	-22.52766
1020.172	-28.67156
1020.341	6.14391
1020.509	38.91141
1020.677	18.43172
1020.845	-30.71953
1021.014	45.05531
1021.182	45.05531
1021.35	22.52766
1021.518	59.39109
1021.686	0
1021.855	32.7675
1022.023	-51.19922
1022.191	0
1022.359	8.19187
1022.527	-6.14391
1022.695	34.81547
1022.863	53.24719
1023.031	12.28781
1023.199	-20.47969
1023.367	38.91141
1023.535	0
1023.703	-57.34313
1023.871	45.05531
1024.039	40.95937
1024.207	-8.19187
1024.375	10.23984
1024.542	45.05531
1024.71	20.47969
1024.878	-6.14391
1025.046	67.58297
1025.213	34.81547
1025.381	-26.62359
1025.549	-8.19187
1025.717	63.48703
1025.884	-22.52766
1026.052	34.81547
1026.22	20.47969
1026.387	-24.57563
1026.555	-49.15125
1026.722	0
1026.89	24.57562
1027.058	-96.25453
1027.225	10.23984
1027.393	-55.29516
1027.56	43.00734
1027.728	-18.43172
1027.895	40.95937
1028.062	69.63094
1028.23	28.67156
1028.397	4.09594
1028.565	-2.04797
1028.732	-14.33578
1028.899	-16.38375
1029.067	24.57562
1029.234	-32.7675
1029.401	-59.39109
1029.568	36.86344
1029.736	81.91875
1029.903	36.86344
1030.07	10.23984
1030.237	-6.14391
1030.404	12.28781
1030.572	-63.48703
1030.739	61.43906
1030.906	-18.43172
1031.073	22.52766
1031.24	18.43172
1031.407	36.86344
1031.574	98.3025
1031.741	4.09594
1031.908	-28.67156
1032.075	36.86344
1032.242	32.7675
1032.409	30.71953
1032.576	-26.62359
1032.743	24.57562
1032.91	32.7675
1033.076	45.05531
1033.243	-20.47969
1033.41	-22.52766
1033.577	-8.19187
1033.744	43.00734
1033.91	8.19187
1034.077	83.96672
1034.244	16.38375
1034.41	-38.91141
1034.577	-49.15125
1034.744	8.19187
1034.91	-51.19922
1035.077	-8.19187
1035.244	22.52766
1035.41	-32.7675
1035.577	53.24719
1035.743	96.25453
1035.91	24.57562
1036.076	6.14391
1036.243	-10.23984
1036.409	79.87078
1036.576	49.15125
1036.742	-10.23984
1036.908	-36.86344
1037.075	-8.19187
1037.241	28.67156
1037.408	32.7675
1037.574	-26.62359
1037.74	40.95937
1037.906	-49.15125
1038.073	10.23984
1038.239	-24.57563
1038.405	47.10328
1038.571	-6.14391
1038.738	-18.43172
1038.904	-10.23984
1039.07	53.24719
1039.236	-16.38375
1039.402	-22.52766
1039.568	6.14391
1039.734	45.05531
1039.9	26.62359
1040.066	14.33578
1040.232	24.57562
1040.398	-12.28781
1040.564	30.71953
1040.73	112.63828
1040.896	0
1041.062	-49.15125
1041.228	38.91141
1041.394	18.43172
1041.56	34.81547
1041.725	-30.71953
1041.891	2.04797
1042.057	-6.14391
1042.223	45.05531
1042.389	-40.95938
1042.554	-32.7675
1042.72	14.33578
1042.886	38.91141
1043.051	12.28781
1043.217	-30.71953
1043.383	14.33578
1043.548	32.7675
1043.714	81.91875
1043.879	-22.52766
1044.045	49.15125
1044.21	34.81547
1044.376	32.7675
1044.541	-24.57563
1044.707	26.62359
1044.872	-20.47969
1045.038	30.71953
1045.203	-14.33578
1045.369	-16.38375
1045.534	-57.34313
1045.699	6.14391
1045.865	16.38375
1046.03	6.14391
1046.195	14.33578
1046.361	10.23984
1046.526	-61.43906
1046.691	-30.71953
1046.856	-34.81547
1047.021	-16.38375
1047.187	28.67156
1047.352	-81.91875
1047.517	-24.57563
1047.682	10.23984
1047.847	-24.57563
1048.012	2.04797
1048.177	22.52766
1048.342	36.86344
1048.507	24.57562
1048.672	83.96672
1048.837	-16.38375
1049.002	12.28781
1049.167	-28.67156
1049.332	71.67891
1049.497	-57.34313
1049.662	-12.28781
1049.827	-8.19187
1049.992	-45.05531
1050.156	6.14391
1050.321	65.535
1050.486	36.86344
1050.651	57.34312
1050.816	16.38375
1050.98	6.14391
1051.145	12.28781
1051.31	47.10328
1051.474	-16.38375
1051.639	59.39109
1051.804	59.39109
1051.968	53.24719
1052.133	20.47969
1052.297	-22.52766
1052.462	2.04797
1052.626	-12.28781
1052.791	75.77484
1052.955	24.57562
1053.12	-4.09594
1053.284	2.04797
1053.449	40.95937
1053.613	-2.04797
1053.777	-24.57563
1053.942	81.91875
1054.106	-10.23984
1054.27	47.10328
1054.435	24.57562
1054.599	51.19922
1054.763	0
1054.928	57.34312
1055.092	14.33578
1055.256	-26.62359
1055.42	36.86344
1055.584	18.43172
1055.748	36.86344
1055.913	24.57562
1056.077	14.33578
1056.241	0
1056.405	32.7675
1056.569	16.38375
1056.733	-28.67156
1056.897	32.7675
1057.061	20.47969
1057.225	-12.28781
1057.389	34.81547
1057.553	12.28781
1057.717	-6.14391
1057.88	12.28781
1058.044	34.81547
1058.208	30.71953
1058.372	-40.95938
1058.536	0
1058.7	-59.39109
1058.863	59.39109
1059.027	45.05531
1059.191	-45.05531
1059.355	-10.23984
1059.518	20.47969
1059.682	12.28781
1059.846	14.33578
1060.009	32.7675
1060.173	4.09594
1060.336	-14.33578
1060.5	16.38375
1060.663	57.34312
1060.827	-65.535
1060.99	34.81547
1061.154	34.81547
1061.317	32.7675
1061.481	-10.23984
1061.644	2.04797
1061.808	16.38375
1061.971	45.05531
1062.134	20.47969
1062.298	81.91875
1062.461	22.52766
1062.624	-40.95938
1062.788	-53.24719
1062.951	22.52766
1063.114	34.81547
1063.277	-8.19187
1063.441	53.24719
1063.604	-67.58297
1063.767	-20.47969
1063.93	-30.71953
1064.093	57.34312
1064.256	34.81547
1064.419	2.04797
1064.582	-24.57563
1064.745	24.57562
1064.908	0
1065.071	55.29516
1065.234	26.62359
1065.397	-59.39109
1065.56	20.47969
1065.723	55.29516
1065.886	0
1066.049	53.24719
1066.212	69.63094
1066.375	-67.58297
1066.537	32.7675
1066.7	38.91141
1066.863	-14.33578
1067.026	-4.09594
1067.189	36.86344
1067.351	77.82281
1067.514	32.7675
1067.677	-88.06266
1067.839	14.33578
1068.002	-12.28781
1068.165	100.35047
1068.327	16.38375
1068.49	18.43172
1068.652	2.04797
1068.815	32.7675
1068.977	65.535
1069.14	-34.81547
1069.302	32.7675
1069.465	-10.23984
1069.627	20.47969
1069.79	14.33578
1069.952	2.04797
1070.114	18.43172
1070.277	-90.11063
1070.439	-8.19187
1070.601	20.47969
1070.764	12.28781
1070.926	-16.38375
1071.088	40.95937
1071.25	32.7675
1071.413	61.43906
1071.575	24.57562
1071.737	-14.33578
1071.899	34.81547
1072.061	55.29516
1072.223	36.86344
1072.385	-30.71953
1072.547	43.00734
1072.71	-4.09594
1072.872	57.34312
1073.034	16.38375
1073.196	30.71953
1073.358	12.28781
1073.519	22.52766
1073.681	-61.43906
1073.843	-8.19187
1074.005	28.67156
1074.167	-12.28781
1074.329	-14.33578
1074.491	-16.38375
1074.652	34.81547
1074.814	-12.28781
1074.976	-73.72688
1075.138	-16.38375
1075.299	-73.72688
1075.461	45.05531
1075.623	-10.23984
1075.785	-57.34313
1075.946	26.62359
1076.108	6.14391
1076.269	0
1076.431	-40.95938
1076.593	69.63094
1076.754	-8.19187
1076.916	12.28781
1077.077	0
1077.239	-63.48703
1077.4	-6.14391
1077.561	8.19187
1077.723	4.09594
1077.884	36.86344
1078.046	34.81547
1078.207	0
1078.368	-4.09594
1078.53	53.24719
1078.691	43.00734
1078.852	79.87078
1079.013	10.23984
1079.175	-36.86344
1079.336	-59.39109
1079.497	110.59031
1079.658	-16.38375
1079.819	-18.43172
1079.981	-10.23984
1080.142	10.23984
1080.303	28.67156
1080.464	-18.43172
1080.625	-30.71953
1080.786	-45.05531
1080.947	4.09594
1081.108	6.14391
1081.269	61.43906
1081.43	-49.15125
1081.591	67.58297
1081.752	12.28781
1081.912	49.15125
1082.073	12.28781
1082.234	79.87078
1082.395	-32.7675
1082.556	0
1082.717	-14.33578
1082.877	98.3025
1083.038	26.62359
1083.199	6.14391
1083.359	-61.43906
1083.52	-12.28781
1083.681	-28.67156
1083.841	4.09594
1084.002	32.7675
1084.163	40.95937
1084.323	16.38375
1084.484	-14.33578
1084.644	-10.23984
1084.805	20.47969
1084.965	-2.04797
1085.126	-24.57563
1085.286	-36.86344
1085.447	18.43172
1085.607	4.09594
1085.767	57.34312
1085.928	28.67156
1086.088	16.38375
1086.249	14.33578
1086.409	81.91875
1086.569	-10.23984
1086.729	40.95937
1086.89	36.86344
1087.05	43.00734
1087.21	-20.47969
1087.37	16.38375
1087.53	-67.58297
1087.691	28.67156
1087.851	26.62359
1088.011	-12.28781
1088.171	16.38375
1088.331	28.67156
1088.491	51.19922
1088.651	8.19187
1088.811	12.28781
1088.971	47.10328
1089.131	-22.52766
1089.291	-20.47969
1089.451	-38.91141
1089.611	-55.29516
1089.771	-65.535
1089.93	12.28781
1090.09	28.67156
1090.25	-4.09594
1090.41	69.63094
1090.57	26.62359
1090.729	-14.33578
1090.889	-14.33578
1091.049	-26.62359
1091.208	-28.67156
1091.368	16.38375
1091.528	-20.47969
1091.687	0
1091.847	-12.28781
1092.007	-40.95938
1092.166	-16.38375
1092.326	-77.82281
1092.485	6.14391
1092.645	10.23984
1092.804	94.20656
1092.964	-47.10328
1093.123	10.23984
1093.282	-43.00734
1093.442	8.19187
1093.601	0
1093.761	30.71953
1093.92	22.52766
1094.079	16.38375
1094.239	51.19922
1094.398	22.52766
1094.557	2.04797
1094.716	-69.63094
1094.876	51.19922
1095.035	88.06266
1095.194	88.06266
1095.353	38.91141
1095.512	4.09594
1095.671	49.15125
1095.83	34.81547
1095.989	55.29516
1096.148	16.38375
1096.307	28.67156
1096.466	61.43906
1096.625	-20.47969
1096.784	4.09594
1096.943	65.535
1097.102	-55.29516
1097.261	49.15125
1097.42	20.47969
1097.579	47.10328
1097.738	49.15125
1097.897	43.00734
1098.055	18.43172
1098.214	-10.23984
1098.373	47.10328
1098.532	30.71953
1098.69	36.86344
1098.849	53.24719
1099.008	8.19187
1099.166	0
1099.325	-14.33578
1099.484	16.38375
1099.642	4.09594
1099.801	-8.19187
1099.959	-6.14391
1100.118	34.81547
1100.276	20.47969
1100.435	2.04797
1100.593	22.52766
1100.752	22.52766
1100.91	4.09594
1101.068	38.91141
1101.227	16.38375
1101.385	30.71953
1101.544	-22.52766
1101.702	-12.28781
1101.86	16.38375
1102.018	32.7675
1102.177	-24.57563
1102.335	-24.57563
1102.493	30.71953
1102.651	75.77484
1102.809	20.47969
1102.968	20.47969
1103.126	-6.14391
1103.284	14.33578
1103.442	18.43172
1103.6	30.71953
1103.758	34.81547
1103.916	32.7675
1104.074	-51.19922
1104.232	32.7675
1104.39	12.28781
1104.548	16.38375
1104.706	51.19922
1104.864	28.67156
1105.022	-40.95938
1105.179	-6.14391
1105.337	22.52766
1105.495	34.81547
1105.653	14.33578
1105.811	45.05531
1105.968	-18.43172
1106.126	12.28781
1106.284	32.7675
1106.441	-16.38375
1106.599	18.43172
1106.757	-43.00734
1106.914	16.38375
1107.072	-22.52766
1107.23	22.52766
1107.387	-38.91141
1107.545	-6.14391
1107.702	-53.24719
1107.86	-26.62359
1108.017	4.09594
1108.175	53.24719
1108.332	34.81547
1108.489	-90.11063
1108.647	12.28781
1108.804	47.10328
1108.962	-4.09594
1109.119	-55.29516
1109.276	61.43906
1109.433	38.91141
1109.591	57.34312
1109.748	77.82281
1109.905	-30.71953
1110.062	16.38375
1110.22	20.47969
1110.377	-28.67156
1110.534	18.43172
1110.691	-53.24719
1110.848	24.57562
1111.005	-4.09594
1111.162	-34.81547
1111.319	-6.14391
1111.476	-26.62359
1111.633	-12.28781
1111.79	-18.43172
1111.947	-28.67156
1112.104	28.67156
1112.261	-43.00734
1112.418	40.95937
1112.575	-45.05531
1112.732	-24.57563
1112.888	36.86344
1113.045	43.00734
1113.202	-34.81547
1113.359	24.57562
1113.515	22.52766
1113.672	-32.7675
1113.829	-12.28781
1113.985	12.28781
1114.142	32.7675
1114.299	22.52766
1114.455	6.14391
1114.612	34.81547
1114.769	-32.7675
1114.925	30.71953
1115.082	24.57562
1115.238	6.14391
1115.395	18.43172
1115.551	-34.81547
1115.707	94.20656
1115.864	36.86344
1116.02	10.23984
1116.177	-10.23984
1116.333	55.29516
1116.489	43.00734
1116.646	20.47969
1116.802	34.81547
1116.958	22.52766
1117.114	59.39109
1117.271	-16.38375
1117.427	51.19922
1117.583	0
1117.739	38.91141
1117.895	14.33578
1118.051	63.48703
1118.208	0
1118.364	-6.14391
1118.52	0
1118.676	28.67156
1118.832	-24.57563
1118.988	-6.14391
1119.144	-26.62359
1119.3	18.43172
1119.456	8.19187
1119.611	-45.05531
1119.767	22.52766
1119.923	18.43172
1120.079	38.91141
1120.235	-8.19187
1120.391	36.86344
1120.546	6.14391
1120.702	10.23984
1120.858	49.15125
1121.014	28.67156
1121.169	45.05531
1121.325	6.14391
1121.481	32.7675
1121.636	-51.19922
1121.792	-24.57563
1121.947	-14.33578
1122.103	22.52766
1122.259	-8.19187
1122.414	-4.09594
1122.57	-45.05531
1122.725	45.05531
1122.881	40.95937
1123.036	-49.15125
1123.191	20.47969
1123.347	0
1123.502	26.62359
1123.657	-32.7675
1123.813	-69.63094
1123.968	38.91141
1124.123	18.43172
1124.279	28.67156
1124.434	10.23984
1124.589	69.63094
1124.744	-30.71953
1124.9	86.01469
1125.055	40.95937
1125.21	51.19922
1125.365	-34.81547
1125.52	-14.33578
1125.675	40.95937
1125.83	-8.19187
1125.985	-18.43172
1126.14	-32.7675
1126.295	59.39109
1126.45	16.38375
1126.605	4.09594
