Data from thorlabsback_SR6010521__0__10-38-19-773.txt Node

Date: Tue Jun 09 10:38:19 CEST 2026
User: FIDOPA_3
Spectrometer: SR601052
Trigger mode: 0
Integration Time (sec): 1.000000E-1
Scans to average: 1
Nonlinearity correction enabled: true
Boxcar width: 0
Storing dark spectrum: false
XAxis mode: Wavelengths
Number of Pixels in Spectrum: 2048
>>>>>Begin Spectral Data<<<<<
350.236	1206.74156
350.626	1189.68335
351.016	1189.68335
351.406	1201.05414
351.797	1205.79357
352.187	1191.57811
352.577	1198.21094
352.967	1224.76061
353.357	1221.9146
353.747	1233.30065
354.137	1213.37859
354.527	1226.65814
354.917	1213.37859
355.307	1228.55581
355.696	1194.42053
356.086	1220.01745
356.476	1227.60695
356.865	1234.24973
357.255	1197.26328
357.645	1227.60695
358.034	1233.30065
358.424	1240.89433
358.813	1236.148
359.202	1228.55581
359.592	1226.65814
359.981	1234.24973
360.37	1215.27522
360.76	1232.35161
361.149	1236.148
361.538	1214.32689
361.927	1430.54213
362.316	1231.4026
362.705	1243.74257
363.094	1268.44132
363.483	1245.64158
363.872	1241.8437
364.261	1238.99568
364.65	1225.70935
365.039	1230.45363
365.427	1246.59115
365.816	1227.60695
366.205	1224.76061
366.593	1228.55581
366.982	1220.01745
367.37	1213.37859
367.759	1247.54075
368.147	1260.83904
368.536	1226.65814
368.924	1241.8437
369.312	1238.99568
369.701	1222.86323
370.089	1235.19885
370.477	1239.94499
370.865	1207.6896
371.253	1233.30065
371.641	1239.94499
372.029	1233.30065
372.417	1227.60695
372.805	1247.54075
373.193	1218.12044
373.581	1234.24973
373.969	1243.74257
374.356	1238.99568
374.744	1204.84561
375.132	1228.55581
375.519	1338.87393
375.907	1242.79312
376.295	1230.45363
376.682	1263.68962
377.07	1221.9146
377.457	1250.38977
377.844	1250.38977
378.232	1239.94499
378.619	1255.13888
379.006	1226.65814
379.393	1219.06893
379.781	1225.70935
380.168	1214.32689
380.555	1243.74257
380.942	1248.49038
381.329	1221.9146
381.716	1228.55581
382.103	1237.09719
382.49	1246.59115
382.876	1239.94499
383.263	1228.55581
383.65	1262.73939
384.037	1243.74257
384.423	1238.99568
384.81	1223.8119
385.197	1226.65814
385.583	1238.99568
385.97	1236.148
386.356	1238.99568
386.742	1232.35161
387.129	1210.53392
387.515	1248.49038
387.901	1241.8437
388.288	1226.65814
388.674	1233.30065
389.06	1235.19885
389.446	1226.65814
389.832	1240.89433
390.218	1257.03879
390.604	1238.99568
390.99	1236.148
391.376	1236.148
391.762	1276.04596
392.148	1235.19885
392.533	1252.2893
392.919	1244.69206
393.305	1216.22359
393.69	1219.06893
394.076	1245.64158
394.461	1236.148
394.847	1231.4026
395.232	1228.55581
395.618	1256.08881
396.003	1243.74257
396.389	1247.54075
396.774	1219.06893
397.159	1227.60695
397.544	1217.172
397.929	1232.35161
398.315	1221.9146
398.7	1232.35161
399.085	1225.70935
399.47	1265.59019
399.855	1245.64158
400.239	1220.01745
400.624	1236.148
401.009	1218.12044
401.394	1237.09719
401.779	1238.99568
402.163	1257.03879
402.548	1241.8437
402.933	1245.64158
403.317	1246.59115
403.702	1227.60695
404.086	1233.30065
404.471	1243.74257
404.855	1220.96601
405.239	1242.79312
405.624	1227.60695
406.008	1242.79312
406.392	1238.04642
406.776	1231.4026
407.16	1210.53392
407.544	1251.33952
407.928	1259.88892
408.312	1260.83904
408.696	1240.89433
409.08	1249.44006
409.464	1228.55581
409.848	1234.24973
410.232	1228.55581
410.616	1242.79312
410.999	1353.17518
411.383	1233.30065
411.766	1238.99568
412.15	1250.38977
412.534	1228.55581
412.917	1260.83904
413.3	1221.9146
413.684	1234.24973
414.067	1241.8437
414.451	1255.13888
414.834	1219.06893
415.217	1214.32689
415.6	1212.43033
415.983	1253.23913
416.366	1257.03879
416.749	1250.38977
417.132	1254.18898
417.515	1227.60695
417.898	1220.96601
418.281	1291.26232
418.664	1238.99568
419.047	1216.22359
419.43	1239.94499
419.812	1223.8119
420.195	1239.94499
420.577	1241.8437
420.96	1238.04642
421.343	1236.148
421.725	1221.9146
422.107	1229.5047
422.49	1229.5047
422.872	1256.08881
423.254	1221.9146
423.637	1244.69206
424.019	1222.86323
424.401	1242.79312
424.783	1245.64158
425.165	1250.38977
425.547	1230.45363
425.929	1247.54075
426.311	1235.19885
426.693	1268.44132
427.075	1217.172
427.457	1247.54075
427.839	1239.94499
428.22	1216.22359
428.602	1250.38977
428.984	1220.01745
429.365	1237.09719
429.747	1263.68962
430.128	1239.94499
430.51	1247.54075
430.891	1234.24973
431.273	1233.30065
431.654	1238.99568
432.035	1243.74257
432.417	1247.54075
432.798	1224.76061
433.179	1255.13888
433.56	1232.35161
433.941	1246.59115
434.322	1213.37859
434.703	1218.12044
435.084	1242.79312
435.465	1250.38977
435.846	1260.83904
436.227	1253.23913
436.608	1240.89433
436.988	1240.89433
437.369	1261.78919
437.75	1220.01745
438.13	1240.89433
438.511	1242.79312
438.891	1231.4026
439.272	1256.08881
439.652	1248.49038
440.032	1267.4909
440.413	1235.19885
440.793	1244.69206
441.173	1227.60695
441.554	1257.03879
441.934	1248.49038
442.314	1259.88892
442.694	1240.89433
443.074	1275.09525
443.454	1262.73939
443.834	1242.79312
444.214	1249.44006
444.593	1276.99671
444.973	1240.89433
445.353	1276.99671
445.733	1276.04596
446.112	1265.59019
446.492	1249.44006
446.872	1243.74257
447.251	1267.4909
447.631	1268.44132
448.01	1276.04596
448.389	1240.89433
448.769	1259.88892
449.148	1262.73939
449.527	1272.24334
449.907	1243.74257
450.286	1272.24334
450.665	1276.04596
451.044	1245.64158
451.423	1267.4909
451.802	1271.29278
452.181	1267.4909
452.56	1253.23913
452.939	1235.19885
453.318	1250.38977
453.696	1276.04596
454.075	1222.86323
454.454	1257.98879
454.832	1247.54075
455.211	1250.38977
455.59	1283.65296
455.968	1275.09525
456.347	1256.08881
456.725	1251.33952
457.103	1232.35161
457.482	1237.09719
457.86	1242.79312
458.238	1247.54075
458.617	1249.44006
458.995	1251.33952
459.373	1240.89433
459.751	1272.24334
460.129	1244.69206
460.507	1263.68962
460.885	1336.01466
461.263	1253.23913
461.64	1249.44006
462.018	1252.2893
462.396	1258.93884
462.774	1247.54075
463.151	1270.34226
463.529	1241.8437
463.907	1218.12044
464.284	1245.64158
464.662	1222.86323
465.039	1247.54075
465.416	1243.74257
465.794	1257.98879
466.171	1236.148
466.548	1248.49038
466.926	1251.33952
467.303	1226.65814
467.68	1247.54075
468.057	1237.09719
468.434	1248.49038
468.811	1280.80006
469.188	1262.73939
469.565	1239.94499
469.942	1240.89433
470.319	1256.08881
470.695	1258.93884
471.072	1260.83904
471.449	1245.64158
471.825	1223.8119
472.202	1253.23913
472.578	1244.69206
472.955	1302.68077
473.331	1251.33952
473.708	1225.70935
474.084	1246.59115
474.46	1238.04642
474.837	1238.04642
475.213	1228.55581
475.589	1230.45363
475.965	1274.14458
476.341	1239.94499
476.717	1229.5047
477.093	1238.99568
477.469	1222.86323
477.845	1243.74257
478.221	1253.23913
478.597	1235.19885
478.973	1270.34226
479.349	1220.96601
479.724	1239.94499
480.1	1250.38977
480.475	1264.63988
480.851	1239.94499
481.227	1228.55581
481.602	1235.19885
481.977	1251.33952
482.353	1263.68962
482.728	1239.94499
483.103	1260.83904
483.479	1248.49038
483.854	1258.93884
484.229	1250.38977
484.604	1233.30065
484.979	1219.06893
485.354	1226.65814
485.729	1232.35161
486.104	1223.8119
486.479	1241.8437
486.854	1265.59019
487.228	1250.38977
487.603	1243.74257
487.978	1246.59115
488.353	1232.35161
488.727	1243.74257
489.102	1224.76061
489.476	1237.09719
489.851	1262.73939
490.225	1267.4909
490.599	1231.4026
490.974	1245.64158
491.348	1255.13888
491.722	1256.08881
492.096	1244.69206
492.471	1258.93884
492.845	1249.44006
493.219	1262.73939
493.593	1261.78919
493.967	1240.89433
494.341	1243.74257
494.715	1244.69206
495.088	1234.24973
495.462	1248.49038
495.836	1232.35161
496.21	1238.04642
496.583	1266.54053
496.957	1267.4909
497.33	1264.63988
497.704	1258.93884
498.077	1238.99568
498.451	1248.49038
498.824	1250.38977
499.197	1253.23913
499.571	1274.14458
499.944	1267.4909
500.317	1281.75099
500.69	1279.84917
501.063	1252.2893
501.436	1241.8437
501.809	1247.54075
502.182	1267.4909
502.555	1255.13888
502.928	1254.18898
503.301	1244.69206
503.674	1274.14458
504.046	1296.01937
504.419	1270.34226
504.792	1286.5062
505.164	1233.30065
505.537	1258.93884
505.909	1249.44006
506.282	1243.74257
506.654	1249.44006
507.027	1265.59019
507.399	1262.73939
507.771	1287.45735
508.143	1245.64158
508.516	1232.35161
508.888	1260.83904
509.26	1273.19394
509.632	1249.44006
510.004	1247.54075
510.376	1247.54075
510.748	1257.03879
511.12	1263.68962
511.491	1268.44132
511.863	1268.44132
512.235	1267.4909
512.607	1292.21366
512.978	1257.03879
513.35	1269.39177
513.721	1261.78919
514.093	1260.83904
514.464	1240.89433
514.836	1270.34226
515.207	1259.88892
515.578	1256.08881
515.95	1278.89831
516.321	1267.4909
516.692	1264.63988
517.063	1264.63988
517.434	1276.99671
517.805	1290.31102
518.176	1255.13888
518.547	1256.08881
518.918	1257.98879
519.289	1253.23913
519.66	1291.26232
520.03	1271.29278
520.401	1270.34226
520.772	1254.18898
521.142	1266.54053
521.513	1268.44132
521.883	1279.84917
522.254	1277.94749
522.624	1261.78919
522.995	1296.01937
523.365	1268.44132
523.735	1275.09525
524.105	1260.83904
524.476	1269.39177
524.846	1258.93884
525.216	1272.24334
525.586	1276.99671
525.956	1274.14458
526.326	1285.55508
526.696	1281.75099
527.066	1268.44132
527.435	1249.44006
527.805	1251.33952
528.175	1282.70196
528.545	1276.99671
528.914	1296.97089
529.284	1275.09525
529.653	1248.49038
530.023	1260.83904
530.392	1255.13888
530.762	1265.59019
531.131	1287.45735
531.5	1267.4909
531.87	1302.68077
532.239	1282.70196
532.608	1262.73939
532.977	1238.99568
533.346	1240.89433
533.715	1271.29278
534.084	1273.19394
534.453	1308.39197
534.822	1269.39177
535.191	1272.24334
535.56	1264.63988
535.929	1279.84917
536.297	1269.39177
536.666	1269.39177
537.034	1282.70196
537.403	1245.64158
537.772	1282.70196
538.14	1278.89831
538.508	1274.14458
538.877	1283.65296
539.245	1254.18898
539.613	1268.44132
539.982	1276.99671
540.35	1289.35976
540.718	1257.98879
541.086	1248.49038
541.454	1265.59019
541.822	1263.68962
542.19	1286.5062
542.558	1262.73939
542.926	1268.44132
543.294	1286.5062
543.661	1262.73939
544.029	1268.44132
544.397	1254.18898
544.764	1263.68962
545.132	1266.54053
545.5	1253.23913
545.867	1296.01937
546.234	1295.06788
546.602	1256.08881
546.969	1284.60401
547.336	1287.45735
547.704	1261.78919
548.071	1299.82566
548.438	1260.83904
548.805	1277.94749
549.172	1244.69206
549.539	1264.63988
549.906	1265.59019
550.273	1261.78919
550.64	1253.23913
551.007	1257.03879
551.374	1288.40854
551.74	1268.44132
552.107	1260.83904
552.474	1276.99671
552.84	1259.88892
553.207	1267.4909
553.573	1260.83904
553.94	1282.70196
554.306	1258.93884
554.672	1272.24334
555.039	1258.93884
555.405	1257.98879
555.771	1262.73939
556.137	1278.89831
556.503	1268.44132
556.87	1262.73939
557.236	1280.80006
557.602	1271.29278
557.967	1269.39177
558.333	1286.5062
558.699	1266.54053
559.065	1312.20017
559.431	1273.19394
559.796	1287.45735
560.162	1277.94749
560.528	1276.04596
560.893	1274.14458
561.259	1294.11644
561.624	1284.60401
561.99	1265.59019
562.355	1266.54053
562.72	1272.24334
563.085	1295.06788
563.451	1276.04596
563.816	1279.84917
564.181	1277.94749
564.546	1287.45735
564.911	1267.4909
565.276	1250.38977
565.641	1255.13888
566.006	1267.4909
566.371	1273.19394
566.735	1276.04596
567.1	1273.19394
567.465	1270.34226
567.83	1272.24334
568.194	1326.48613
568.559	1287.45735
568.923	1271.29278
569.288	1266.54053
569.652	1279.84917
570.016	1264.63988
570.381	1286.5062
570.745	1272.24334
571.109	1276.99671
571.473	1258.93884
571.837	1276.04596
572.202	1291.26232
572.566	1278.89831
572.93	1265.59019
573.293	1271.29278
573.657	1276.04596
574.021	1268.44132
574.385	1282.70196
574.749	1285.55508
575.112	1279.84917
575.476	1298.87403
575.84	1290.31102
576.203	1302.68077
576.567	1278.89831
576.93	1286.5062
577.294	1284.60401
577.657	1300.77733
578.02	1292.21366
578.383	1285.55508
578.747	1294.11644
579.11	1271.29278
579.473	1259.88892
579.836	1283.65296
580.199	1315.05671
580.562	1295.06788
580.925	1271.29278
581.288	1290.31102
581.651	1320.77076
582.013	1296.97089
582.376	1253.23913
582.739	1283.65296
583.101	1310.296
583.464	1299.82566
583.827	1272.24334
584.189	1259.88892
584.551	1266.54053
584.914	1273.19394
585.276	1320.77076
585.639	1286.5062
586.001	1277.94749
586.363	1311.24807
586.725	1270.34226
587.087	1292.21366
587.449	1307.44001
587.811	1302.68077
588.173	1267.4909
588.535	1342.6868
588.897	1286.5062
589.259	1285.55508
589.621	1293.16503
589.982	1279.84917
590.344	1300.77733
590.706	1265.59019
591.067	1298.87403
591.429	1281.75099
591.79	1292.21366
592.152	1288.40854
592.513	1286.5062
592.874	1301.72903
593.236	1342.6868
593.597	1294.11644
593.958	1299.82566
594.319	1261.78919
594.68	1291.26232
595.041	1280.80006
595.402	1303.63254
595.763	1279.84917
596.124	1296.01937
596.485	1287.45735
596.846	1283.65296
597.207	1308.39197
597.567	1311.24807
597.928	1278.89831
598.288	1279.84917
598.649	1307.44001
599.01	1277.94749
599.37	1305.53621
599.73	1290.31102
600.091	1291.26232
600.451	1312.20017
600.811	1316.96125
601.172	1261.78919
601.532	1338.87393
601.892	1302.68077
602.252	1303.63254
602.612	1282.70196
602.972	1299.82566
603.332	1288.40854
603.692	1287.45735
604.052	1293.16503
604.411	1296.01937
604.771	1296.97089
605.131	1257.98879
605.49	1289.35976
605.85	1289.35976
606.21	1298.87403
606.569	1293.16503
606.928	1323.62828
607.288	1308.39197
607.647	1269.39177
608.006	1285.55508
608.366	1282.70196
608.725	1287.45735
609.084	1270.34226
609.443	1295.06788
609.802	1285.55508
610.161	1288.40854
610.52	1284.60401
610.879	1301.72903
611.238	1296.01937
611.597	1292.21366
611.955	1287.45735
612.314	1273.19394
612.673	1294.11644
613.031	1257.03879
613.39	1312.20017
613.749	1274.14458
614.107	1266.54053
614.465	1273.19394
614.824	1314.10449
615.182	1291.26232
615.54	1270.34226
615.899	1303.63254
616.257	1307.44001
616.615	1294.11644
616.973	1287.45735
617.331	1310.296
617.689	1279.84917
618.047	1271.29278
618.405	1279.84917
618.763	1281.75099
619.12	1309.34397
619.478	1271.29278
619.836	1296.01937
620.193	1279.84917
620.551	1278.89831
620.908	1279.84917
621.266	1290.31102
621.623	1272.24334
621.981	1286.5062
622.338	1285.55508
622.695	1274.14458
623.053	1268.44132
623.41	1310.296
623.767	1299.82566
624.124	1296.97089
624.481	1261.78919
624.838	1281.75099
625.195	1285.55508
625.552	1273.19394
625.909	1283.65296
626.266	1289.35976
626.622	1279.84917
626.979	1263.68962
627.336	1288.40854
627.692	1311.24807
628.049	1310.296
628.405	1305.53621
628.762	1261.78919
629.118	1252.2893
629.474	1270.34226
629.831	1295.06788
630.187	1306.48809
630.543	1286.5062
630.899	1326.48613
631.255	1274.14458
631.611	1298.87403
631.967	1266.54053
632.323	1288.40854
632.679	1244.69206
633.035	1276.04596
633.391	1299.82566
633.747	1280.80006
634.102	1294.11644
634.458	1287.45735
634.814	1297.92244
635.169	1255.13888
635.525	1298.87403
635.88	1276.04596
636.236	1283.65296
636.591	1248.49038
636.946	1298.87403
637.302	1282.70196
637.657	1278.89831
638.012	1248.49038
638.367	1267.4909
638.722	1288.40854
639.077	1257.98879
639.432	1252.2893
639.787	1271.29278
640.142	1292.21366
640.497	1278.89831
640.851	1266.54053
641.206	1264.63988
641.561	1264.63988
641.915	1292.21366
642.27	1271.29278
642.625	1276.99671
642.979	1279.84917
643.333	1276.04596
643.688	1273.19394
644.042	1262.73939
644.396	1269.39177
644.751	1270.34226
645.105	1275.09525
645.459	1274.14458
645.813	1302.68077
646.167	1278.89831
646.521	1309.34397
646.875	1282.70196
647.229	1243.74257
647.582	1291.26232
647.936	1295.06788
648.29	1284.60401
648.644	1270.34226
648.997	1261.78919
649.351	1279.84917
649.704	1279.84917
650.058	1232.35161
650.411	1275.09525
650.765	1260.83904
651.118	1258.93884
651.471	1283.65296
651.824	1257.03879
652.178	1260.83904
652.531	1238.99568
652.884	1241.8437
653.237	1259.88892
653.59	1259.88892
653.943	1273.19394
654.295	1242.79312
654.648	1257.03879
655.001	1276.04596
655.354	1269.39177
655.706	1253.23913
656.059	1267.4909
656.412	1255.13888
656.764	1261.78919
657.117	1271.29278
657.469	1265.59019
657.821	1285.55508
658.174	1282.70196
658.526	1272.24334
658.878	1253.23913
659.23	1241.8437
659.582	1269.39177
659.934	1263.68962
660.286	1266.54053
660.638	1251.33952
660.99	1256.08881
661.342	1260.83904
661.694	1238.04642
662.046	1283.65296
662.397	1263.68962
662.749	1254.18898
663.101	1250.38977
663.452	1246.59115
663.804	1245.64158
664.155	1274.14458
664.507	1257.03879
664.858	1275.09525
665.209	1304.58436
665.561	1273.19394
665.912	1257.98879
666.263	1259.88892
666.614	1257.98879
666.965	1284.60401
667.316	1259.88892
667.667	1270.34226
668.018	1278.89831
668.369	1239.94499
668.72	1275.09525
669.07	1228.55581
669.421	1280.80006
669.772	1281.75099
670.122	1241.8437
670.473	1274.14458
670.823	1255.13888
671.174	1260.83904
671.524	1285.55508
671.875	1278.89831
672.225	1252.2893
672.575	1258.93884
672.925	1278.89831
673.275	1315.05671
673.626	1275.09525
673.976	1281.75099
674.326	1312.20017
674.676	1238.99568
675.025	1244.69206
675.375	1249.44006
675.725	1257.03879
676.075	1282.70196
676.424	1265.59019
676.774	1242.79312
677.124	1279.84917
677.473	1265.59019
677.823	1259.88892
678.172	1304.58436
678.522	1279.84917
678.871	1267.4909
679.22	1266.54053
679.569	1257.03879
679.919	1295.06788
680.268	1278.89831
680.617	1245.64158
680.966	1294.11644
681.315	1279.84917
681.664	1276.99671
682.013	1265.59019
682.361	1238.04642
682.71	1273.19394
683.059	1286.5062
683.408	1290.31102
683.756	1276.04596
684.105	1253.23913
684.453	1269.39177
684.802	1250.38977
685.15	1297.92244
685.499	1266.54053
685.847	1257.03879
686.195	1256.08881
686.543	1276.04596
686.891	1267.4909
687.24	1283.65296
687.588	1277.94749
687.936	1256.08881
688.284	1301.72903
688.631	1256.08881
688.979	1259.88892
689.327	1229.5047
689.675	1297.92244
690.023	1269.39177
690.37	1267.4909
690.718	1260.83904
691.065	1247.54075
691.413	1257.03879
691.76	1245.64158
692.108	1301.72903
692.455	1243.74257
692.802	1272.24334
693.15	1248.49038
693.497	1257.03879
693.844	1248.49038
694.191	1281.75099
694.538	1260.83904
694.885	1265.59019
695.232	1261.78919
695.579	1285.55508
695.926	1236.148
696.272	1260.83904
696.619	1246.59115
696.966	1251.33952
697.312	1253.23913
697.659	1269.39177
698.006	1244.69206
698.352	1290.31102
698.698	1251.33952
699.045	1220.96601
699.391	1255.13888
699.737	1231.4026
700.084	1276.99671
700.43	1272.24334
700.776	1253.23913
701.122	1247.54075
701.468	1262.73939
701.814	1255.13888
702.16	1243.74257
702.506	1273.19394
702.851	1237.09719
703.197	1246.59115
703.543	1259.88892
703.889	1243.74257
704.234	1247.54075
704.58	1260.83904
704.925	1264.63988
705.271	1253.23913
705.616	1269.39177
705.961	1243.74257
706.307	1258.93884
706.652	1246.59115
706.997	1257.03879
707.342	1246.59115
707.687	1291.26232
708.032	1266.54053
708.377	1263.68962
708.722	1237.09719
709.067	1257.03879
709.412	1269.39177
709.757	1249.44006
710.101	1271.29278
710.446	1238.04642
710.791	1247.54075
711.135	1250.38977
711.48	1260.83904
711.824	1230.45363
712.168	1242.79312
712.513	1257.03879
712.857	1246.59115
713.201	1280.80006
713.546	1291.26232
713.89	1247.54075
714.234	1270.34226
714.578	1263.68962
714.922	1281.75099
715.266	1272.24334
715.61	1279.84917
715.954	1273.19394
716.297	1281.75099
716.641	1289.35976
716.985	1238.04642
717.328	1254.18898
717.672	1317.91357
718.015	1278.89831
718.359	1283.65296
718.702	1273.19394
719.046	1238.04642
719.389	1249.44006
719.732	1257.98879
720.075	1300.77733
720.419	1268.44132
720.762	1267.4909
721.105	1248.49038
721.448	1260.83904
721.791	1249.44006
722.134	1258.93884
722.476	1249.44006
722.819	1248.49038
723.162	1242.79312
723.505	1245.64158
723.847	1256.08881
724.19	1251.33952
724.532	1257.03879
724.875	1263.68962
725.217	1283.65296
725.56	1257.98879
725.902	1243.74257
726.244	1228.55581
726.587	1266.54053
726.929	1243.74257
727.271	1221.9146
727.613	1257.98879
727.955	1241.8437
728.297	1264.63988
728.639	1234.24973
728.981	1245.64158
729.322	1271.29278
729.664	1292.21366
730.006	1248.49038
730.347	1238.99568
730.689	1261.78919
731.031	1285.55508
731.372	1225.70935
731.714	1277.94749
732.055	1258.93884
732.396	1271.29278
732.737	1289.35976
733.079	1233.30065
733.42	1258.93884
733.761	1243.74257
734.102	1293.16503
734.443	1215.27522
734.784	1299.82566
735.125	1237.09719
735.466	1239.94499
735.807	1265.59019
736.147	1234.24973
736.488	1242.79312
736.829	1266.54053
737.169	1256.08881
737.51	1250.38977
737.85	1223.8119
738.191	1256.08881
738.531	1257.98879
738.871	1257.98879
739.212	1254.18898
739.552	1263.68962
739.892	1255.13888
740.232	1218.12044
740.572	1262.73939
740.912	1238.04642
741.252	1231.4026
741.592	1252.2893
741.932	1250.38977
742.272	1241.8437
742.612	1249.44006
742.951	1261.78919
743.291	1269.39177
743.631	1251.33952
743.97	1234.24973
744.31	1272.24334
744.649	1244.69206
744.988	1264.63988
745.328	1264.63988
745.667	1254.18898
746.006	1271.29278
746.345	1238.04642
746.685	1247.54075
747.024	1247.54075
747.363	1228.55581
747.702	1270.34226
748.04	1272.24334
748.379	1230.45363
748.718	1248.49038
749.057	1237.09719
749.396	1259.88892
749.734	1240.89433
750.073	1272.24334
750.411	1238.99568
750.75	1269.39177
751.088	1241.8437
751.427	1249.44006
751.765	1223.8119
752.103	1262.73939
752.441	1268.44132
752.78	1252.2893
753.118	1252.2893
753.456	1269.39177
753.794	1226.65814
754.132	1247.54075
754.47	1277.94749
754.807	1257.03879
755.145	1240.89433
755.483	1238.04642
755.821	1247.54075
756.158	1257.03879
756.496	1258.93884
756.833	1227.60695
757.171	1245.64158
757.508	1256.08881
757.846	1235.19885
758.183	1251.33952
758.52	1225.70935
758.857	1263.68962
759.195	1250.38977
759.532	1255.13888
759.869	1240.89433
760.206	1254.18898
760.543	1261.78919
760.88	1246.59115
761.216	1232.35161
761.553	1223.8119
761.89	1259.88892
762.227	1219.06893
762.563	1262.73939
762.9	1229.5047
763.236	1248.49038
763.573	1254.18898
763.909	1246.59115
764.245	1249.44006
764.582	1248.49038
764.918	1253.23913
765.254	1254.18898
765.59	1229.5047
765.926	1268.44132
766.262	1242.79312
766.598	1232.35161
766.934	1240.89433
767.27	1233.30065
767.606	1220.96601
767.942	1244.69206
768.278	1260.83904
768.613	1233.30065
768.949	1270.34226
769.284	1228.55581
769.62	1252.2893
769.955	1261.78919
770.291	1251.33952
770.626	1243.74257
770.961	1248.49038
771.297	1250.38977
771.632	1243.74257
771.967	1262.73939
772.302	1260.83904
772.637	1264.63988
772.972	1253.23913
773.307	1227.60695
773.642	1256.08881
773.976	1261.78919
774.311	1237.09719
774.646	1243.74257
774.981	1249.44006
775.315	1218.12044
775.65	1253.23913
775.984	1262.73939
776.319	1243.74257
776.653	1256.08881
776.987	1251.33952
777.321	1238.04642
777.656	1251.33952
777.99	1266.54053
778.324	1307.44001
778.658	1281.75099
778.992	1235.19885
779.326	1245.64158
779.66	1249.44006
779.994	1243.74257
780.327	1238.99568
780.661	1238.04642
780.995	1243.74257
781.328	1233.30065
781.662	1251.33952
781.995	1244.69206
782.329	1254.18898
782.662	1264.63988
782.996	1237.09719
783.329	1247.54075
783.662	1223.8119
783.995	1274.14458
784.329	1254.18898
784.662	1259.88892
784.995	1245.64158
785.328	1268.44132
785.661	1235.19885
785.993	1255.13888
786.326	1269.39177
786.659	1273.19394
786.992	1266.54053
787.324	1251.33952
787.657	1275.09525
787.989	1244.69206
788.322	1244.69206
788.654	1246.59115
788.987	1273.19394
789.319	1271.29278
789.651	1250.38977
789.983	1270.34226
790.316	1276.04596
790.648	1218.12044
790.98	1241.8437
791.312	1244.69206
791.644	1262.73939
791.976	1254.18898
792.307	1196.31566
792.639	1256.08881
792.971	1265.59019
793.303	1255.13888
793.634	1239.94499
793.966	1226.65814
794.297	1235.19885
794.629	1255.13888
794.96	1285.55508
795.291	1248.49038
795.623	1224.76061
795.954	1240.89433
796.285	1264.63988
796.616	1255.13888
796.947	1255.13888
797.278	1251.33952
797.609	1261.78919
797.94	1242.79312
798.271	1280.80006
798.602	1264.63988
798.933	1231.4026
799.263	1249.44006
799.594	1254.18898
799.925	1250.38977
800.255	1241.8437
800.586	1241.8437
800.916	1262.73939
801.246	1240.89433
801.577	1266.54053
801.907	1261.78919
802.237	1248.49038
802.567	1267.4909
802.897	1247.54075
803.227	1275.09525
803.557	1222.86323
803.887	1264.63988
804.217	1271.29278
804.547	1233.30065
804.877	1252.2893
805.206	1258.93884
805.536	1239.94499
805.866	1220.01745
806.195	1227.60695
806.525	1262.73939
806.854	1276.99671
807.183	1245.64158
807.513	1280.80006
807.842	1251.33952
808.171	1238.04642
808.5	1268.44132
808.83	1236.148
809.159	1268.44132
809.488	1230.45363
809.817	1280.80006
810.145	1249.44006
810.474	1256.08881
810.803	1278.89831
811.132	1276.99671
811.46	1232.35161
811.789	1239.94499
812.118	1248.49038
812.446	1260.83904
812.775	1265.59019
813.103	1267.4909
813.431	1236.148
813.76	1254.18898
814.088	1262.73939
814.416	1226.65814
814.744	1251.33952
815.072	1290.31102
815.4	1245.64158
815.728	1281.75099
816.056	1238.99568
816.384	1253.23913
816.712	1233.30065
817.039	1257.03879
817.367	1228.55581
817.695	1258.93884
818.022	1269.39177
818.35	1263.68962
818.677	1223.8119
819.005	1254.18898
819.332	1244.69206
819.659	1265.59019
819.986	1274.14458
820.314	1242.79312
820.641	1237.09719
820.968	1261.78919
821.295	1254.18898
821.622	1241.8437
821.949	1256.08881
822.276	1226.65814
822.602	1300.77733
822.929	1287.45735
823.256	1236.148
823.582	1240.89433
823.909	1234.24973
824.235	1280.80006
824.562	1272.24334
824.888	1280.80006
825.215	1277.94749
825.541	1216.22359
825.867	1266.54053
826.193	1260.83904
826.52	1291.26232
826.846	1255.13888
827.172	1251.33952
827.498	1274.14458
827.823	1282.70196
828.149	1268.44132
828.475	1257.03879
828.801	1258.93884
829.127	1293.16503
829.452	1276.04596
829.778	1248.49038
830.103	1252.2893
830.429	1258.93884
830.754	1282.70196
831.08	1244.69206
831.405	1267.4909
831.73	1246.59115
832.055	1246.59115
832.38	1247.54075
832.705	1276.04596
833.03	1252.2893
833.355	1257.98879
833.68	1246.59115
834.005	1297.92244
834.33	1270.34226
834.655	1272.24334
834.979	1248.49038
835.304	1239.94499
835.629	1271.29278
835.953	1258.93884
836.278	1255.13888
836.602	1255.13888
836.926	1263.68962
837.251	1229.5047
837.575	1223.8119
837.899	1247.54075
838.223	1251.33952
838.547	1252.2893
838.871	1259.88892
839.195	1267.4909
839.519	1262.73939
839.843	1242.79312
840.167	1258.93884
840.491	1268.44132
840.814	1270.34226
841.138	1252.2893
841.462	1255.13888
841.785	1243.74257
842.108	1274.14458
842.432	1258.93884
842.755	1255.13888
843.079	1276.99671
843.402	1265.59019
843.725	1267.4909
844.048	1286.5062
844.371	1270.34226
844.694	1269.39177
845.017	1239.94499
845.34	1254.18898
845.663	1224.76061
845.986	1240.89433
846.308	1263.68962
846.631	1268.44132
846.954	1264.63988
847.276	1276.99671
847.599	1282.70196
847.921	1236.148
848.244	1256.08881
848.566	1259.88892
848.888	1265.59019
849.211	1253.23913
849.533	1242.79312
849.855	1275.09525
850.177	1229.5047
850.499	1241.8437
850.821	1247.54075
851.143	1220.01745
851.465	1253.23913
851.786	1252.2893
852.108	1239.94499
852.43	1270.34226
852.751	1264.63988
853.073	1244.69206
853.394	1245.64158
853.716	1255.13888
854.037	1257.98879
854.359	1233.30065
854.68	1235.19885
855.001	1254.18898
855.322	1260.83904
855.643	1234.24973
855.964	1252.2893
856.285	1256.08881
856.606	1246.59115
856.927	1247.54075
857.248	1302.68077
857.569	1238.99568
857.889	1283.65296
858.21	1228.55581
858.531	1251.33952
858.851	1270.34226
859.172	1249.44006
859.492	1242.79312
859.813	1258.93884
860.133	1254.18898
860.453	1247.54075
860.773	1229.5047
861.094	1265.59019
861.414	1263.68962
861.734	1251.33952
862.054	1256.08881
862.374	1245.64158
862.693	1272.24334
863.013	1283.65296
863.333	1256.08881
863.653	1236.148
863.972	1262.73939
864.292	1263.68962
864.611	1273.19394
864.931	1276.04596
865.25	1290.31102
865.57	1261.78919
865.889	1257.03879
866.208	1237.09719
866.527	1257.03879
866.847	1258.93884
867.166	1264.63988
867.485	1280.80006
867.804	1249.44006
868.123	1228.55581
868.441	1264.63988
868.76	1256.08881
869.079	1263.68962
869.398	1259.88892
869.716	1258.93884
870.035	1287.45735
870.353	1257.03879
870.672	1261.78919
870.99	1257.98879
871.308	1242.79312
871.627	1238.04642
871.945	1273.19394
872.263	1257.98879
872.581	1288.40854
872.899	1244.69206
873.217	1259.88892
873.535	1254.18898
873.853	1274.14458
874.171	1273.19394
874.489	1271.29278
874.806	1249.44006
875.124	1271.29278
875.442	1262.73939
875.759	1251.33952
876.077	1287.45735
876.394	1257.03879
876.711	1250.38977
877.029	1230.45363
877.346	1276.04596
877.663	1296.97089
877.98	1260.83904
878.297	1251.33952
878.614	1263.68962
878.931	1247.54075
879.248	1261.78919
879.565	1238.04642
879.882	1245.64158
880.199	1283.65296
880.515	1258.93884
880.832	1269.39177
881.149	1280.80006
881.465	1255.13888
881.782	1240.89433
882.098	1276.04596
882.414	1290.31102
882.731	1267.4909
883.047	1260.83904
883.363	1285.55508
883.679	1236.148
883.995	1248.49038
884.311	1258.93884
884.627	1259.88892
884.943	1259.88892
885.259	1261.78919
885.575	1258.93884
885.89	1232.35161
886.206	1246.59115
886.522	1242.79312
886.837	1285.55508
887.153	1276.99671
887.468	1246.59115
887.783	1273.19394
888.099	1260.83904
888.414	1242.79312
888.729	1249.44006
889.044	1246.59115
889.359	1230.45363
889.674	1269.39177
889.989	1256.08881
890.304	1278.89831
890.619	1238.99568
890.934	1281.75099
891.249	1230.45363
891.563	1236.148
891.878	1246.59115
892.193	1273.19394
892.507	1256.08881
892.822	1261.78919
893.136	1258.93884
893.45	1260.83904
893.765	1278.89831
894.079	1229.5047
894.393	1258.93884
894.707	1270.34226
895.021	1277.94749
895.335	1254.18898
895.649	1294.11644
895.963	1274.14458
896.277	1231.4026
896.591	1296.97089
896.904	1256.08881
897.218	1249.44006
897.531	1238.99568
897.845	1240.89433
898.158	1256.08881
898.472	1253.23913
898.785	1282.70196
899.099	1258.93884
899.412	1261.78919
899.725	1244.69206
900.038	1249.44006
900.351	1280.80006
900.664	1243.74257
900.977	1269.39177
901.29	1257.98879
901.603	1262.73939
901.916	1259.88892
902.228	1280.80006
902.541	1240.89433
902.854	1286.5062
903.166	1237.09719
903.479	1264.63988
903.791	1240.89433
904.104	1256.08881
904.416	1252.2893
904.728	1253.23913
905.04	1264.63988
905.352	1246.59115
905.665	1253.23913
905.977	1283.65296
906.289	1246.59115
906.6	1251.33952
906.912	1231.4026
907.224	1234.24973
907.536	1255.13888
907.848	1258.93884
908.159	1245.64158
908.471	1268.44132
908.782	1234.24973
909.094	1245.64158
909.405	1261.78919
909.716	1276.99671
910.028	1234.24973
910.339	1252.2893
910.65	1234.24973
910.961	1260.83904
911.272	1307.44001
911.583	1283.65296
911.894	1265.59019
912.205	1248.49038
912.516	1234.24973
912.827	1263.68962
913.137	1291.26232
913.448	1234.24973
913.758	1258.93884
914.069	1254.18898
914.379	1233.30065
914.69	1238.99568
915	1241.8437
915.31	1239.94499
915.621	1244.69206
915.931	1261.78919
916.241	1218.12044
916.551	1277.94749
916.861	1252.2893
917.171	1293.16503
917.481	1240.89433
917.791	1258.93884
918.1	1217.172
918.41	1250.38977
918.72	1267.4909
919.029	1262.73939
919.339	1269.39177
919.648	1263.68962
919.958	1268.44132
920.267	1258.93884
920.576	1233.30065
920.886	1245.64158
921.195	1241.8437
921.504	1285.55508
921.813	1257.03879
922.122	1278.89831
922.431	1273.19394
922.74	1293.16503
923.049	1254.18898
923.357	1261.78919
923.666	1233.30065
923.975	1266.54053
924.283	1260.83904
924.592	1257.98879
924.9	1232.35161
925.209	1260.83904
925.517	1240.89433
925.825	1243.74257
926.134	1241.8437
926.442	1260.83904
926.75	1317.91357
927.058	1240.89433
927.366	1262.73939
927.674	1275.09525
927.982	1258.93884
928.29	1279.84917
928.598	1245.64158
928.905	1262.73939
929.213	1248.49038
929.521	1258.93884
929.828	1238.99568
930.136	1286.5062
930.443	1237.09719
930.75	1238.04642
931.058	1231.4026
931.365	1264.63988
931.672	1281.75099
931.979	1235.19885
932.286	1274.14458
932.593	1254.18898
932.9	1255.13888
933.207	1276.04596
933.514	1283.65296
933.821	1248.49038
934.127	1240.89433
934.434	1258.93884
934.741	1239.94499
935.047	1248.49038
935.354	1212.43033
935.66	1255.13888
935.966	1273.19394
936.273	1270.34226
936.579	1259.88892
936.885	1291.26232
937.191	1255.13888
937.497	1253.23913
937.803	1275.09525
938.109	1261.78919
938.415	1263.68962
938.721	1254.18898
939.027	1259.88892
939.333	1248.49038
939.638	1252.2893
939.944	1275.09525
940.249	1249.44006
940.555	1269.39177
940.86	1255.13888
941.166	1252.2893
941.471	1290.31102
941.776	1262.73939
942.081	1238.99568
942.386	1273.19394
942.692	1260.83904
942.997	1236.148
943.301	1272.24334
943.606	1243.74257
943.911	1237.09719
944.216	1232.35161
944.521	1243.74257
944.825	1257.03879
945.13	1256.08881
945.434	1249.44006
945.739	1254.18898
946.043	1264.63988
946.348	1259.88892
946.652	1253.23913
946.956	1253.23913
947.26	1257.03879
947.564	1241.8437
947.869	1228.55581
948.173	1223.8119
948.476	1271.29278
948.78	1250.38977
949.084	1263.68962
949.388	1284.60401
949.692	1224.76061
949.995	1245.64158
950.299	1261.78919
950.602	1253.23913
950.906	1243.74257
951.209	1268.44132
951.513	1273.19394
951.816	1231.4026
952.119	1258.93884
952.422	1218.12044
952.725	1257.98879
953.028	1246.59115
953.331	1249.44006
953.634	1286.5062
953.937	1546.54882
954.24	1276.04596
954.543	1236.148
954.845	1272.24334
955.148	1271.29278
955.451	1259.88892
955.753	1265.59019
956.056	1273.19394
956.358	1255.13888
956.66	1231.4026
956.963	1241.8437
957.265	1272.24334
957.567	1255.13888
957.869	1238.99568
958.171	1246.59115
958.473	1253.23913
958.775	1218.12044
959.077	1249.44006
959.379	1275.09525
959.68	1245.64158
959.982	1265.59019
960.284	1245.64158
960.585	1251.33952
960.887	1239.94499
961.188	1242.79312
961.49	1262.73939
961.791	1257.98879
962.092	1286.5062
962.393	1270.34226
962.694	1271.29278
962.996	1267.4909
963.297	1271.29278
963.597	1271.29278
963.898	1258.93884
964.199	1276.04596
964.5	1271.29278
964.801	1276.99671
965.101	1236.148
965.402	1245.64158
965.703	1260.83904
966.003	1269.39177
966.303	1291.26232
966.604	1257.03879
966.904	1258.93884
967.204	1267.4909
967.504	1253.23913
967.805	1248.49038
968.105	1258.93884
968.405	1242.79312
968.705	1292.21366
969.004	1250.38977
969.304	1249.44006
969.604	1270.34226
969.904	1252.2893
970.203	1268.44132
970.503	1252.2893
970.802	1256.08881
971.102	1262.73939
971.401	1241.8437
971.701	1257.03879
972	1232.35161
972.299	1239.94499
972.598	1257.03879
972.897	1270.34226
973.196	1236.148
973.495	1271.29278
973.794	1255.13888
974.093	1246.59115
974.392	1239.94499
974.691	1246.59115
974.989	1251.33952
975.288	1280.80006
975.587	1250.38977
975.885	1261.78919
976.184	1236.148
976.482	1277.94749
976.78	1246.59115
977.078	1266.54053
977.377	1246.59115
977.675	1257.98879
977.973	1253.23913
978.271	1284.60401
978.569	1256.08881
978.867	1229.5047
979.165	1245.64158
979.462	1262.73939
979.76	1271.29278
980.058	1285.55508
980.355	1248.49038
980.653	1251.33952
980.95	1253.23913
981.248	1266.54053
981.545	1235.19885
981.842	1261.78919
982.14	1259.88892
982.437	1279.84917
982.734	1282.70196
983.031	1257.03879
983.328	1285.55508
983.625	1236.148
983.922	1264.63988
984.218	1262.73939
984.515	1264.63988
984.812	1257.03879
985.108	1263.68962
985.405	1235.19885
985.702	1274.14458
985.998	1239.94499
986.294	1262.73939
986.591	1265.59019
986.887	1228.55581
987.183	1252.2893
987.479	1235.19885
987.775	1275.09525
988.071	1264.63988
988.367	1230.45363
988.663	1296.97089
988.959	1265.59019
989.255	1284.60401
989.551	1247.54075
989.846	1249.44006
990.142	1275.09525
990.437	1238.99568
990.733	1286.5062
991.028	1277.94749
991.324	1270.34226
991.619	1265.59019
991.914	1249.44006
992.209	1231.4026
992.504	1251.33952
992.799	1292.21366
993.094	1244.69206
993.389	1264.63988
993.684	1241.8437
993.979	1267.4909
994.274	1237.09719
994.568	1250.38977
994.863	1239.94499
995.157	1272.24334
995.452	1273.19394
995.746	1265.59019
996.041	1253.23913
996.335	1233.30065
996.629	1269.39177
996.924	1268.44132
997.218	1257.03879
997.512	1303.63254
997.806	1250.38977
998.1	1291.26232
998.394	1276.99671
998.687	1243.74257
998.981	1290.31102
999.275	1247.54075
999.568	1251.33952
999.862	1273.19394
1000.156	1257.03879
1000.449	1264.63988
1000.742	1271.29278
1001.036	1257.03879
1001.329	1221.9146
1001.622	1251.33952
1001.915	1268.44132
1002.209	1265.59019
1002.502	1259.88892
1002.794	1245.64158
1003.087	1268.44132
1003.38	1261.78919
1003.673	1275.09525
1003.966	1249.44006
1004.258	1260.83904
1004.551	1249.44006
1004.844	1248.49038
1005.136	1259.88892
1005.428	1255.13888
1005.721	1252.2893
1006.013	1262.73939
1006.305	1282.70196
1006.597	1242.79312
1006.89	1275.09525
1007.182	1245.64158
1007.474	1244.69206
1007.766	1261.78919
1008.057	1264.63988
1008.349	1268.44132
1008.641	1254.18898
1008.933	1273.19394
1009.224	1240.89433
1009.516	1257.98879
1009.807	1263.68962
1010.099	1257.03879
1010.39	1229.5047
1010.681	1229.5047
1010.973	1234.24973
1011.264	1228.55581
1011.555	1266.54053
1011.846	1251.33952
1012.137	1262.73939
1012.428	1256.08881
1012.719	1241.8437
1013.01	1245.64158
1013.3	1270.34226
1013.591	1241.8437
1013.882	1257.03879
1014.172	1238.99568
1014.463	1276.99671
1014.753	1265.59019
1015.044	1249.44006
1015.334	1243.74257
1015.624	1264.63988
1015.914	1260.83904
1016.205	1267.4909
1016.495	1275.09525
1016.785	1259.88892
1017.075	1259.88892
1017.365	1249.44006
1017.654	1276.04596
1017.944	1279.84917
1018.234	1280.80006
1018.524	1243.74257
1018.813	1236.148
1019.103	1276.04596
1019.392	1257.98879
1019.681	1253.23913
1019.971	1240.89433
1020.26	1270.34226
1020.549	1277.94749
1020.838	1269.39177
1021.128	1250.38977
1021.417	1282.70196
1021.706	1291.26232
1021.994	1222.86323
1022.283	1271.29278
1022.572	1259.88892
1022.861	1250.38977
1023.149	1268.44132
1023.438	1257.03879
1023.727	1260.83904
1024.015	1309.34397
1024.303	1275.09525
1024.592	1260.83904
1024.88	1266.54053
1025.168	1239.94499
1025.456	1255.13888
1025.745	1314.10449
1026.033	1262.73939
1026.321	1256.08881
1026.608	1241.8437
1026.896	1266.54053
1027.184	1252.2893
1027.472	1240.89433
1027.76	1241.8437
1028.047	1263.68962
1028.335	1243.74257
1028.622	1254.18898
1028.91	1245.64158
1029.197	1248.49038
1029.484	1246.59115
1029.771	1257.98879
1030.059	1248.49038
1030.346	1291.26232
1030.633	1293.16503
1030.92	1236.148
1031.207	1258.93884
1031.493	1287.45735
1031.78	1232.35161
1032.067	1249.44006
1032.354	1259.88892
1032.64	1242.79312
1032.927	1243.74257
1033.213	1282.70196
1033.5	1272.24334
1033.786	1239.94499
1034.072	1286.5062
1034.359	1260.83904
1034.645	1249.44006
1034.931	1259.88892
1035.217	1252.2893
1035.503	1254.18898
1035.789	1263.68962
1036.075	1272.24334
1036.36	1231.4026
1036.646	1231.4026
1036.932	1241.8437
1037.217	1257.03879
1037.503	1218.12044
1037.789	1243.74257
1038.074	1240.89433
1038.359	1225.70935
1038.645	1280.80006
1038.93	1261.78919
1039.215	1275.09525
1039.5	1231.4026
1039.785	1243.74257
1040.07	1249.44006
1040.355	1242.79312
1040.64	1233.30065
1040.925	1244.69206
1041.209	1234.24973
1041.494	1220.96601
1041.779	1237.09719
1042.063	1507.18323
1042.348	1220.96601
1042.632	1223.8119
1042.917	1237.09719
1043.201	1210.53392
1043.485	1212.43033
1043.769	1247.54075
1044.053	1228.55581
1044.337	1238.99568
1044.621	1235.19885
1044.905	1244.69206
1045.189	1217.172
1045.473	1236.148
1045.757	1189.68335
1046.04	1207.6896
1046.324	1202.9498
1046.607	1198.21094
1046.891	1220.01745
1047.174	1196.31566
