Data from uniphase1023p_SR6010521__3__11-56-36-869.txt Node

Date: Tue Jun 16 11:56:36 CEST 2026
User: FIDOPA_3
Spectrometer: SR601052
Trigger mode: 0
Integration Time (sec): 1.000000E-1
Scans to average: 1
Nonlinearity correction enabled: true
Boxcar width: 0
Storing dark spectrum: false
XAxis mode: Wavelengths
Number of Pixels in Spectrum: 2048
>>>>>Begin Spectral Data<<<<<
350.236	1288.40854
350.626	1263.68962
351.016	1263.68962
351.406	1276.04596
351.797	1277.94749
352.187	1276.04596
352.577	1271.29278
352.967	1283.65296
353.357	1319.81833
353.747	1307.44001
354.137	1283.65296
354.527	1326.48613
354.917	1286.5062
355.307	1313.15231
355.696	1296.97089
356.086	1299.82566
356.476	1312.20017
356.865	1313.15231
357.255	1269.39177
357.645	1314.10449
358.034	1325.53348
358.424	1346.50025
358.813	1330.29711
359.202	1303.63254
359.592	1325.53348
359.981	1320.77076
360.37	1314.10449
360.76	1314.10449
361.149	1308.39197
361.538	1294.11644
361.927	1622.56347
362.316	1333.15572
362.705	1331.24994
363.094	1358.89796
363.483	1330.29711
363.872	1324.58086
364.261	1327.43882
364.65	1309.34397
365.039	1344.59345
365.427	1332.20281
365.816	1297.92244
366.205	1328.39155
366.593	1297.92244
366.982	1314.10449
367.37	1321.72323
367.759	1344.59345
368.147	1348.40719
368.536	1318.86593
368.924	1314.10449
369.312	1333.15572
369.701	1304.58436
370.089	1331.24994
370.477	1325.53348
370.865	1305.53621
371.253	1322.67574
371.641	1352.22151
372.029	1325.53348
372.417	1304.58436
372.805	1351.26787
373.193	1314.10449
373.581	1309.34397
373.969	1342.6868
374.356	1355.08263
374.744	1298.87403
375.132	1324.58086
375.519	1478.41637
375.907	1307.44001
376.295	1333.15572
376.682	1358.89796
377.07	1319.81833
377.457	1358.89796
377.844	1348.40719
378.232	1345.54683
378.619	1355.08263
379.006	1320.77076
379.393	1295.06788
379.781	1316.96125
380.168	1292.21366
380.555	1316.96125
380.942	1334.10867
381.329	1320.77076
381.716	1300.77733
382.103	1316.00896
382.49	1348.40719
382.876	1325.53348
383.263	1327.43882
383.65	1373.21062
384.037	1330.29711
384.423	1316.00896
384.81	1298.87403
385.197	1314.10449
385.583	1328.39155
385.97	1353.17518
386.356	1324.58086
386.742	1350.31428
387.129	1316.96125
387.515	1376.07412
387.901	1332.20281
388.288	1328.39155
388.674	1322.67574
389.06	1338.87393
389.446	1311.24807
389.832	1331.24994
390.218	1375.11958
390.604	1335.06165
390.99	1332.20281
391.376	1320.77076
391.762	1351.26787
392.148	1348.40719
392.533	1362.71388
392.919	1328.39155
393.305	1302.68077
393.69	1319.81833
394.076	1328.39155
394.461	1338.87393
394.847	1325.53348
395.232	1320.77076
395.618	1350.31428
396.003	1338.87393
396.389	1357.94408
396.774	1300.77733
397.159	1321.72323
397.544	1307.44001
397.929	1316.00896
398.315	1323.62828
398.7	1347.4537
399.085	1292.21366
399.47	1372.25619
399.855	1355.08263
400.239	1328.39155
400.624	1323.62828
401.009	1325.53348
401.394	1318.86593
401.779	1332.20281
402.163	1331.24994
402.548	1319.81833
402.933	1354.12889
403.317	1340.78029
403.702	1308.39197
404.086	1332.20281
404.471	1327.43882
404.855	1290.31102
405.239	1337.92081
405.624	1320.77076
406.008	1332.20281
406.392	1337.92081
406.776	1306.48809
407.16	1292.21366
407.544	1355.08263
407.928	1357.94408
408.312	1365.57619
408.696	1330.29711
409.08	1345.54683
409.464	1332.20281
409.848	1342.6868
410.232	1324.58086
410.616	1327.43882
410.999	1368.43883
411.383	1337.92081
411.766	1329.34431
412.15	1316.00896
412.534	1321.72323
412.917	1340.78029
413.3	1306.48809
413.684	1324.58086
414.067	1323.62828
414.451	1335.06165
414.834	1299.82566
415.217	1305.53621
415.6	1312.20017
415.983	1356.99022
416.366	1360.80585
416.749	1359.85189
417.132	1348.40719
417.515	1320.77076
417.898	1323.62828
418.281	1404.72699
418.664	1342.6868
419.047	1290.31102
419.43	1332.20281
419.812	1290.31102
420.195	1317.91357
420.577	1344.59345
420.96	1336.96772
421.343	1348.40719
421.725	1324.58086
422.107	1329.34431
422.49	1316.00896
422.872	1343.64011
423.254	1308.39197
423.637	1323.62828
424.019	1309.34397
424.401	1341.73353
424.783	1346.50025
425.165	1354.12889
425.547	1330.29711
425.929	1327.43882
426.311	1333.15572
426.693	1351.26787
427.075	1305.53621
427.457	1329.34431
427.839	1327.43882
428.22	1304.58436
428.602	1345.54683
428.984	1331.24994
429.365	1326.48613
429.747	1342.6868
430.128	1313.15231
430.51	1330.29711
430.891	1340.78029
431.273	1313.15231
431.654	1322.67574
432.035	1318.86593
432.417	1331.24994
432.798	1309.34397
433.179	1337.92081
433.56	1324.58086
433.941	1349.36072
434.322	1280.80006
434.703	1286.5062
435.084	1317.91357
435.465	1354.12889
435.846	1344.59345
436.227	1344.59345
436.608	1352.22151
436.988	1323.62828
437.369	1356.99022
437.75	1310.296
438.13	1329.34431
438.511	1335.06165
438.891	1313.15231
439.272	1343.64011
439.652	1341.73353
440.032	1362.71388
440.413	1322.67574
440.793	1337.92081
441.173	1296.01937
441.554	1334.10867
441.934	1357.94408
442.314	1349.36072
442.694	1315.05671
443.074	1341.73353
443.454	1351.26787
443.834	1324.58086
444.214	1331.24994
444.593	1351.26787
444.973	1313.15231
445.353	1357.94408
445.733	1347.4537
446.112	1324.58086
446.492	1323.62828
446.872	1317.91357
447.251	1343.64011
447.631	1361.75984
448.01	1369.39311
448.389	1325.53348
448.769	1338.87393
449.148	1334.10867
449.527	1331.24994
449.907	1321.72323
450.286	1358.89796
450.665	1374.16508
451.044	1319.81833
451.423	1338.87393
451.802	1354.12889
452.181	1339.82709
452.56	1326.48613
452.939	1310.296
453.318	1319.81833
453.696	1351.26787
454.075	1292.21366
454.454	1368.43883
454.832	1338.87393
455.211	1345.54683
455.59	1388.48639
455.968	1365.57619
456.347	1350.31428
456.725	1346.50025
457.103	1325.53348
457.482	1311.24807
457.86	1313.15231
458.238	1339.82709
458.617	1319.81833
458.995	1336.96772
459.373	1352.22151
459.751	1354.12889
460.129	1331.24994
460.507	1361.75984
460.885	1385.62148
461.263	1347.4537
461.64	1336.96772
462.018	1364.62205
462.396	1337.92081
462.774	1342.6868
463.151	1363.66794
463.529	1315.05671
463.907	1305.53621
464.284	1313.15231
464.662	1297.92244
465.039	1336.01466
465.416	1339.82709
465.794	1361.75984
466.171	1318.86593
466.548	1333.15572
466.926	1316.96125
467.303	1335.06165
467.68	1324.58086
468.057	1335.06165
468.434	1322.67574
468.811	1377.0287
469.188	1357.94408
469.565	1327.43882
469.942	1322.67574
470.319	1338.87393
470.695	1353.17518
471.072	1337.92081
471.449	1335.06165
471.825	1301.72903
472.202	1356.99022
472.578	1319.81833
472.955	1427.67249
473.331	1349.36072
473.708	1315.05671
474.084	1329.34431
474.46	1314.10449
474.837	1337.92081
475.213	1321.72323
475.589	1325.53348
475.965	1365.57619
476.341	1339.82709
476.717	1291.26232
477.093	1345.54683
477.469	1295.06788
477.845	1334.10867
478.221	1321.72323
478.597	1325.53348
478.973	1345.54683
479.349	1300.77733
479.724	1345.54683
480.1	1330.29711
480.475	1390.39651
480.851	1331.24994
481.227	1297.92244
481.602	1318.86593
481.977	1335.06165
482.353	1338.87393
482.728	1333.15572
483.103	1347.4537
483.479	1333.15572
483.854	1356.03641
484.229	1316.96125
484.604	1316.96125
484.979	1294.11644
485.354	1298.87403
485.729	1300.77733
486.104	1311.24807
486.479	1329.34431
486.854	1361.75984
487.228	1363.66794
487.603	1317.91357
487.978	1336.01466
488.353	1306.48809
488.727	1322.67574
489.102	1304.58436
489.476	1331.24994
489.851	1336.01466
490.225	1326.48613
490.599	1300.77733
490.974	1326.48613
491.348	1338.87393
491.722	1333.15572
492.096	1300.77733
492.471	1355.08263
492.845	1353.17518
493.219	1354.12889
493.593	1342.6868
493.967	1314.10449
494.341	1347.4537
494.715	1320.77076
495.088	1332.20281
495.462	1323.62828
495.836	1299.82566
496.21	1313.15231
496.583	1337.92081
496.957	1357.94408
497.33	1356.99022
497.704	1328.39155
498.077	1325.53348
498.451	1311.24807
498.824	1335.06165
499.197	1315.05671
499.571	1342.6868
499.944	1363.66794
500.317	1391.35163
500.69	1373.21062
501.063	1359.85189
501.436	1285.55508
501.809	1327.43882
502.182	1328.39155
502.555	1335.06165
502.928	1358.89796
503.301	1326.48613
503.674	1331.24994
504.046	1391.35163
504.419	1342.6868
504.792	1361.75984
505.164	1296.97089
505.537	1343.64011
505.909	1345.54683
506.282	1307.44001
506.654	1327.43882
507.027	1331.24994
507.399	1331.24994
507.771	1388.48639
508.143	1323.62828
508.516	1305.53621
508.888	1358.89796
509.26	1371.30179
509.632	1310.296
510.004	1296.97089
510.376	1334.10867
510.748	1320.77076
511.12	1330.29711
511.491	1358.89796
511.863	1353.17518
512.235	1364.62205
512.607	1390.39651
512.978	1324.58086
513.35	1328.39155
513.721	1329.34431
514.093	1325.53348
514.464	1327.43882
514.836	1336.01466
515.207	1350.31428
515.578	1319.81833
515.95	1363.66794
516.321	1345.54683
516.692	1355.08263
517.063	1335.06165
517.434	1360.80585
517.805	1371.30179
518.176	1325.53348
518.547	1332.20281
518.918	1326.48613
519.289	1316.96125
519.66	1360.80585
520.03	1352.22151
520.401	1350.31428
520.772	1335.06165
521.142	1357.94408
521.513	1345.54683
521.883	1358.89796
522.254	1355.08263
522.624	1322.67574
522.995	1374.16508
523.365	1356.03641
523.735	1357.94408
524.105	1321.72323
524.476	1371.30179
524.846	1329.34431
525.216	1351.26787
525.586	1375.11958
525.956	1365.57619
526.326	1363.66794
526.696	1363.66794
527.066	1351.26787
527.435	1301.72903
527.805	1327.43882
528.175	1354.12889
528.545	1353.17518
528.914	1402.81579
529.284	1342.6868
529.653	1315.05671
530.023	1335.06165
530.392	1337.92081
530.762	1324.58086
531.131	1352.22151
531.5	1355.08263
531.87	1365.57619
532.239	1377.98331
532.608	1333.15572
532.977	1296.97089
533.346	1309.34397
533.715	1358.89796
534.084	1357.94408
534.453	1369.39311
534.822	1340.78029
535.191	1359.85189
535.56	1327.43882
535.929	1367.48458
536.297	1332.20281
536.666	1353.17518
537.034	1356.03641
537.403	1301.72903
537.772	1346.50025
538.14	1354.12889
538.508	1348.40719
538.877	1349.36072
539.245	1333.15572
539.613	1328.39155
539.982	1353.17518
540.35	1372.25619
540.718	1335.06165
541.086	1329.34431
541.454	1315.05671
541.822	1343.64011
542.19	1397.08306
542.558	1335.06165
542.926	1343.64011
543.294	1339.82709
543.661	1307.44001
544.029	1325.53348
544.397	1324.58086
544.764	1324.58086
545.132	1327.43882
545.5	1326.48613
545.867	1377.0287
546.234	1366.53037
546.602	1321.72323
546.969	1346.50025
547.336	1384.66659
547.704	1340.78029
548.071	1353.17518
548.438	1339.82709
548.805	1350.31428
549.172	1334.10867
549.539	1337.92081
549.906	1338.87393
550.273	1319.81833
550.64	1321.72323
551.007	1337.92081
551.374	1363.66794
551.74	1325.53348
552.107	1326.48613
552.474	1354.12889
552.84	1319.81833
553.207	1335.06165
553.573	1320.77076
553.94	1360.80585
554.306	1319.81833
554.672	1348.40719
555.039	1345.54683
555.405	1316.00896
555.771	1328.39155
556.137	1360.80585
556.503	1339.82709
556.87	1339.82709
557.236	1357.94408
557.602	1341.73353
557.967	1340.78029
558.333	1358.89796
558.699	1343.64011
559.065	1375.11958
559.431	1356.03641
559.796	1354.12889
560.162	1329.34431
560.528	1344.59345
560.893	1350.31428
561.259	1340.78029
561.624	1340.78029
561.99	1329.34431
562.355	1298.87403
562.72	1363.66794
563.085	1343.64011
563.451	1335.06165
563.816	1353.17518
564.181	1324.58086
564.546	1336.96772
564.911	1346.50025
565.276	1304.58436
565.641	1323.62828
566.006	1348.40719
566.371	1358.89796
566.735	1356.99022
567.1	1339.82709
567.465	1326.48613
567.83	1350.31428
568.194	1401.86025
568.559	1381.80211
568.923	1332.20281
569.288	1333.15572
569.652	1328.39155
570.016	1324.58086
570.381	1351.26787
570.745	1340.78029
571.109	1334.10867
571.473	1308.39197
571.837	1336.96772
572.202	1345.54683
572.566	1343.64011
572.93	1325.53348
573.293	1320.77076
573.657	1336.01466
574.021	1326.48613
574.385	1327.43882
574.749	1345.54683
575.112	1343.64011
575.476	1349.36072
575.84	1383.71172
576.203	1394.21718
576.567	1351.26787
576.93	1354.12889
577.294	1340.78029
577.657	1356.99022
578.02	1350.31428
578.383	1367.48458
578.747	1359.85189
579.11	1332.20281
579.473	1328.39155
579.836	1344.59345
580.199	1399.94927
580.562	1384.66659
580.925	1353.17518
581.288	1377.98331
581.651	1388.48639
582.013	1356.99022
582.376	1319.81833
582.739	1346.50025
583.101	1394.21718
583.464	1368.43883
583.827	1324.58086
584.189	1302.68077
584.551	1347.4537
584.914	1338.87393
585.276	1400.90474
585.639	1343.64011
586.001	1359.85189
586.363	1399.94927
586.725	1326.48613
587.087	1360.80585
587.449	1370.34744
587.811	1360.80585
588.173	1314.10449
588.535	1437.23919
588.897	1348.40719
589.259	1355.08263
589.621	1347.4537
589.982	1349.36072
590.344	1363.66794
590.706	1332.20281
591.067	1377.98331
591.429	1358.89796
591.79	1352.22151
592.152	1342.6868
592.513	1362.71388
592.874	1385.62148
593.236	1429.58555
593.597	1349.36072
593.958	1380.84735
594.319	1335.06165
594.68	1351.26787
595.041	1337.92081
595.402	1376.07412
595.763	1336.01466
596.124	1367.48458
596.485	1381.80211
596.846	1355.08263
597.207	1352.22151
597.567	1384.66659
597.928	1347.4537
598.288	1347.4537
598.649	1347.4537
599.01	1346.50025
599.37	1372.25619
599.73	1345.54683
600.091	1362.71388
600.451	1364.62205
600.811	1388.48639
601.172	1312.20017
601.532	1407.59405
601.892	1377.98331
602.252	1373.21062
602.612	1345.54683
602.972	1359.85189
603.332	1353.17518
603.692	1325.53348
604.052	1341.73353
604.411	1351.26787
604.771	1384.66659
605.131	1331.24994
605.49	1360.80585
605.85	1354.12889
606.21	1398.03843
606.569	1331.24994
606.928	1374.16508
607.288	1376.07412
607.647	1364.62205
608.006	1342.6868
608.366	1351.26787
608.725	1355.08263
609.084	1366.53037
609.443	1378.93795
609.802	1364.62205
610.161	1341.73353
610.52	1377.0287
610.879	1385.62148
611.238	1376.07412
611.597	1380.84735
611.955	1375.11958
612.314	1367.48458
612.673	1363.66794
613.031	1344.59345
613.39	1393.26196
613.749	1345.54683
614.107	1372.25619
614.465	1335.06165
614.824	1409.5056
615.182	1385.62148
615.54	1326.48613
615.899	1394.21718
616.257	1390.39651
616.615	1381.80211
616.973	1383.71172
617.331	1399.94927
617.689	1367.48458
618.047	1354.12889
618.405	1350.31428
618.763	1358.89796
619.12	1414.28511
619.478	1363.66794
619.836	1386.57642
620.193	1393.26196
620.551	1388.48639
620.908	1369.39311
621.266	1407.59405
621.623	1378.93795
621.981	1374.16508
622.338	1407.59405
622.695	1415.24112
623.053	1443.93798
623.41	1560.96546
623.767	1677.54174
624.124	1634.12869
624.481	1531.17968
624.838	1450.63852
625.195	1465.00266
625.552	1474.58317
625.909	1529.25916
626.266	1499.50898
626.622	1557.12026
626.979	1743.27267
627.336	2236.05666
627.692	2011.61054
628.049	1810.12675
628.405	1760.69776
628.762	1735.53162
629.118	1743.27267
629.474	1794.61044
629.831	1991.10838
630.187	2118.24512
630.543	2106.48774
630.899	2332.58422
631.255	2479.87188
631.611	3075.95037
631.967	6870.42972
632.323	24312.75115
632.679	60702.0953
633.035	67720.27915
633.391	41758.80498
633.747	25845.36177
634.102	22413.74836
634.458	24425.69112
634.814	24888.16116
635.169	17168.55718
635.525	9163.38564
635.88	4579.15494
636.236	2793.24736
636.591	2121.18514
636.946	1856.72564
637.302	1708.45471
637.657	1638.94898
638.012	1543.66643
638.367	1509.10214
638.722	1527.33878
639.077	1457.3408
639.432	1433.41208
639.787	1458.29841
640.142	1430.54213
640.497	1421.93419
640.851	1418.10937
641.206	1382.7569
641.561	1390.39651
641.915	1406.63833
642.27	1415.24112
642.625	1398.99383
642.979	1381.80211
643.333	1403.77137
643.688	1403.77137
644.042	1373.21062
644.396	1385.62148
644.751	1392.30678
645.105	1392.30678
645.459	1376.07412
645.813	1389.44143
646.167	1365.57619
646.521	1416.19717
646.875	1371.30179
647.229	1338.87393
647.582	1404.72699
647.936	1388.48639
648.29	1387.53139
648.644	1353.17518
648.997	1357.94408
649.351	1365.57619
649.704	1365.57619
650.058	1324.58086
650.411	1365.57619
650.765	1358.89796
651.118	1334.10867
651.471	1378.93795
651.824	1342.6868
652.178	1323.62828
652.531	1327.43882
652.884	1339.82709
653.237	1360.80585
653.59	1335.06165
653.943	1348.40719
654.295	1327.43882
654.648	1327.43882
655.001	1355.08263
655.354	1351.26787
655.706	1331.24994
656.059	1371.30179
656.412	1344.59345
656.764	1336.96772
657.117	1362.71388
657.469	1350.31428
657.821	1387.53139
658.174	1376.07412
658.526	1359.85189
658.878	1342.6868
659.23	1316.00896
659.582	1336.01466
659.934	1362.71388
660.286	1327.43882
660.638	1348.40719
660.99	1343.64011
661.342	1329.34431
661.694	1321.72323
662.046	1372.25619
662.397	1349.36072
662.749	1339.82709
663.101	1337.92081
663.452	1353.17518
663.804	1310.296
664.155	1332.20281
664.507	1330.29711
664.858	1371.30179
665.209	1404.72699
665.561	1343.64011
665.912	1357.94408
666.263	1342.6868
666.614	1360.80585
666.965	1377.98331
667.316	1344.59345
667.667	1373.21062
668.018	1361.75984
668.369	1305.53621
668.72	1360.80585
669.07	1309.34397
669.421	1389.44143
669.772	1372.25619
670.122	1333.15572
670.473	1363.66794
670.823	1332.20281
671.174	1370.34744
671.524	1353.17518
671.875	1367.48458
672.225	1351.26787
672.575	1339.82709
672.925	1364.62205
673.275	1402.81579
673.626	1362.71388
673.976	1364.62205
674.326	1397.08306
674.676	1331.24994
675.025	1342.6868
675.375	1324.58086
675.725	1339.82709
676.075	1368.43883
676.424	1342.6868
676.774	1321.72323
677.124	1356.99022
677.473	1375.11958
677.823	1356.99022
678.172	1452.55328
678.522	1377.98331
678.871	1367.48458
679.22	1353.17518
679.569	1331.24994
679.919	1419.06552
680.268	1360.80585
680.617	1308.39197
680.966	1366.53037
681.315	1390.39651
681.664	1381.80211
682.013	1367.48458
682.361	1319.81833
682.71	1349.36072
683.059	1346.50025
683.408	1387.53139
683.756	1371.30179
684.105	1346.50025
684.453	1344.59345
684.802	1328.39155
685.15	1386.57642
685.499	1368.43883
685.847	1336.96772
686.195	1346.50025
686.543	1369.39311
686.891	1358.89796
687.24	1373.21062
687.588	1382.7569
687.936	1342.6868
688.284	1392.30678
688.631	1347.4537
688.979	1360.80585
689.327	1348.40719
689.675	1387.53139
690.023	1341.73353
690.37	1352.22151
690.718	1347.4537
691.065	1336.01466
691.413	1356.99022
691.76	1331.24994
692.108	1405.68264
692.455	1326.48613
692.802	1347.4537
693.15	1323.62828
693.497	1333.15572
693.844	1335.06165
694.191	1357.94408
694.538	1344.59345
694.885	1359.85189
695.232	1320.77076
695.579	1342.6868
695.926	1313.15231
696.272	1354.12889
696.619	1350.31428
696.966	1340.78029
697.312	1333.15572
697.659	1359.85189
698.006	1343.64011
698.352	1373.21062
698.698	1365.57619
699.045	1307.44001
699.391	1334.10867
699.737	1319.81833
700.084	1372.25619
700.43	1377.98331
700.776	1356.99022
701.122	1328.39155
701.468	1345.54683
701.814	1356.03641
702.16	1335.06165
702.506	1364.62205
702.851	1321.72323
703.197	1311.24807
703.543	1334.10867
703.889	1341.73353
704.234	1336.96772
704.58	1352.22151
704.925	1354.12889
705.271	1336.01466
705.616	1345.54683
705.961	1341.73353
706.307	1350.31428
706.652	1327.43882
706.997	1352.22151
707.342	1343.64011
707.687	1364.62205
708.032	1381.80211
708.377	1356.03641
708.722	1336.01466
709.067	1349.36072
709.412	1351.26787
709.757	1350.31428
710.101	1373.21062
710.446	1329.34431
710.791	1336.96772
711.135	1332.20281
711.48	1352.22151
711.824	1309.34397
712.168	1336.01466
712.513	1345.54683
712.857	1341.73353
713.201	1399.94927
713.546	1391.35163
713.89	1346.50025
714.234	1391.35163
714.578	1378.93795
714.922	1350.31428
715.266	1357.94408
715.61	1358.89796
715.954	1387.53139
716.297	1371.30179
716.641	1389.44143
716.985	1356.99022
717.328	1384.66659
717.672	1463.08698
718.015	1395.17244
718.359	1394.21718
718.702	1346.50025
719.046	1319.81833
719.389	1343.64011
719.732	1354.12889
720.075	1404.72699
720.419	1373.21062
720.762	1365.57619
721.105	1368.43883
721.448	1356.99022
721.791	1324.58086
722.134	1375.11958
722.476	1356.99022
722.819	1357.94408
723.162	1351.26787
723.505	1322.67574
723.847	1346.50025
724.19	1342.6868
724.532	1338.87393
724.875	1348.40719
725.217	1393.26196
725.56	1363.66794
725.902	1336.96772
726.244	1291.26232
726.587	1388.48639
726.929	1326.48613
727.271	1285.55508
727.613	1342.6868
727.955	1339.82709
728.297	1356.99022
728.639	1341.73353
728.981	1316.96125
729.322	1354.12889
729.664	1393.26196
730.006	1351.26787
730.347	1336.96772
730.689	1356.99022
731.031	1375.11958
731.372	1294.11644
731.714	1385.62148
732.055	1351.26787
732.396	1346.50025
732.737	1374.16508
733.079	1313.15231
733.42	1348.40719
733.761	1322.67574
734.102	1420.02171
734.443	1304.58436
734.784	1392.30678
735.125	1328.39155
735.466	1340.78029
735.807	1350.31428
736.147	1326.48613
736.488	1337.92081
736.829	1359.85189
737.169	1367.48458
737.51	1351.26787
737.85	1321.72323
738.191	1355.08263
738.531	1348.40719
738.871	1378.93795
739.212	1348.40719
739.552	1384.66659
739.892	1356.99022
740.232	1310.296
740.572	1338.87393
740.912	1320.77076
741.252	1332.20281
741.592	1359.85189
741.932	1351.26787
742.272	1336.01466
742.612	1335.06165
742.951	1360.80585
743.291	1346.50025
743.631	1341.73353
743.97	1340.78029
744.31	1358.89796
744.649	1326.48613
744.988	1346.50025
745.328	1359.85189
745.667	1354.12889
746.006	1364.62205
746.345	1322.67574
746.685	1334.10867
747.024	1345.54683
747.363	1318.86593
747.702	1384.66659
748.04	1365.57619
748.379	1318.86593
748.718	1332.20281
749.057	1329.34431
749.396	1348.40719
749.734	1330.29711
750.073	1383.71172
750.411	1336.96772
750.75	1361.75984
751.088	1345.54683
751.427	1329.34431
751.765	1299.82566
752.103	1371.30179
752.441	1347.4537
752.78	1345.54683
753.118	1363.66794
753.456	1353.17518
753.794	1323.62828
754.132	1338.87393
754.47	1402.81579
754.807	1365.57619
755.145	1358.89796
755.483	1324.58086
755.821	1340.78029
756.158	1336.01466
756.496	1360.80585
756.833	1311.24807
757.171	1346.50025
757.508	1356.99022
757.846	1313.15231
758.183	1361.75984
758.52	1318.86593
758.857	1351.26787
759.195	1354.12889
759.532	1352.22151
759.869	1334.10867
760.206	1359.85189
760.543	1376.07412
760.88	1338.87393
761.216	1352.22151
761.553	1314.10449
761.89	1359.85189
762.227	1318.86593
762.563	1336.96772
762.9	1324.58086
763.236	1361.75984
763.573	1357.94408
763.909	1336.96772
764.245	1328.39155
764.582	1337.92081
764.918	1331.24994
765.254	1336.96772
765.59	1320.77076
765.926	1400.90474
766.262	1345.54683
766.598	1296.01937
766.934	1314.10449
767.27	1328.39155
767.606	1323.62828
767.942	1339.82709
768.278	1344.59345
768.613	1312.20017
768.949	1361.75984
769.284	1304.58436
769.62	1339.82709
769.955	1380.84735
770.291	1326.48613
770.626	1309.34397
770.961	1343.64011
771.297	1344.59345
771.632	1341.73353
771.967	1366.53037
772.302	1372.25619
772.637	1345.54683
772.972	1365.57619
773.307	1324.58086
773.642	1335.06165
773.976	1364.62205
774.311	1341.73353
774.646	1342.6868
774.981	1349.36072
775.315	1297.92244
775.65	1360.80585
775.984	1370.34744
776.319	1336.01466
776.653	1374.16508
776.987	1368.43883
777.321	1329.34431
777.656	1338.87393
777.99	1338.87393
778.324	1413.32914
778.658	1387.53139
778.992	1318.86593
779.326	1359.85189
779.66	1327.43882
779.994	1335.06165
780.327	1322.67574
780.661	1316.00896
780.995	1351.26787
781.328	1328.39155
781.662	1354.12889
781.995	1332.20281
782.329	1377.0287
782.662	1361.75984
782.996	1321.72323
783.329	1355.08263
783.662	1319.81833
783.995	1360.80585
784.329	1361.75984
784.662	1351.26787
784.995	1336.96772
785.328	1342.6868
785.661	1315.05671
785.993	1350.31428
786.326	1365.57619
786.659	1382.7569
786.992	1371.30179
787.324	1349.36072
787.657	1386.57642
787.989	1344.59345
788.322	1336.01466
788.654	1319.81833
788.987	1405.68264
789.319	1366.53037
789.651	1352.22151
789.983	1378.93795
790.316	1378.93795
790.648	1291.26232
790.98	1337.92081
791.312	1347.4537
791.644	1363.66794
791.976	1368.43883
792.307	1281.75099
792.639	1332.20281
792.971	1374.16508
793.303	1351.26787
793.634	1301.72903
793.966	1311.24807
794.297	1336.01466
794.629	1331.24994
794.96	1377.0287
795.291	1352.22151
795.623	1312.20017
795.954	1339.82709
796.285	1339.82709
796.616	1360.80585
796.947	1342.6868
797.278	1349.36072
797.609	1351.26787
797.94	1354.12889
798.271	1355.08263
798.602	1355.08263
798.933	1321.72323
799.263	1357.94408
799.594	1355.08263
799.925	1343.64011
800.255	1326.48613
800.586	1332.20281
800.916	1355.08263
801.246	1336.01466
801.577	1374.16508
801.907	1347.4537
802.237	1336.96772
802.567	1364.62205
802.897	1342.6868
803.227	1390.39651
803.557	1316.00896
803.887	1351.26787
804.217	1356.03641
804.547	1339.82709
804.877	1345.54683
805.206	1348.40719
805.536	1315.05671
805.866	1309.34397
806.195	1319.81833
806.525	1361.75984
806.854	1383.71172
807.183	1334.10867
807.513	1377.0287
807.842	1339.82709
808.171	1343.64011
808.5	1378.93795
808.83	1340.78029
809.159	1370.34744
809.488	1324.58086
809.817	1406.63833
810.145	1332.20281
810.474	1324.58086
810.803	1374.16508
811.132	1356.03641
811.46	1335.06165
811.789	1350.31428
812.118	1347.4537
812.446	1340.78029
812.775	1368.43883
813.103	1378.93795
813.431	1337.92081
813.76	1355.08263
814.088	1364.62205
814.416	1330.29711
814.744	1354.12889
815.072	1426.71602
815.4	1338.87393
815.728	1366.53037
816.056	1325.53348
816.384	1380.84735
816.712	1323.62828
817.039	1361.75984
817.367	1327.43882
817.695	1370.34744
818.022	1390.39651
818.35	1378.93795
818.677	1302.68077
819.005	1367.48458
819.332	1353.17518
819.659	1366.53037
819.986	1382.7569
820.314	1330.29711
820.641	1329.34431
820.968	1371.30179
821.295	1357.94408
821.622	1343.64011
821.949	1340.78029
822.276	1309.34397
822.602	1420.97793
822.929	1381.80211
823.256	1319.81833
823.582	1335.06165
823.909	1323.62828
824.235	1372.25619
824.562	1402.81579
824.888	1378.93795
825.215	1386.57642
825.541	1294.11644
825.867	1377.98331
826.193	1363.66794
826.52	1377.98331
826.846	1346.50025
827.172	1348.40719
827.498	1401.86025
827.823	1407.59405
828.149	1378.93795
828.475	1351.26787
828.801	1382.7569
829.127	1389.44143
829.452	1390.39651
829.778	1333.15572
830.103	1362.71388
830.429	1362.71388
830.754	1372.25619
831.08	1323.62828
831.405	1348.40719
831.73	1356.03641
832.055	1365.57619
832.38	1333.15572
832.705	1382.7569
833.03	1343.64011
833.355	1351.26787
833.68	1327.43882
834.005	1420.02171
834.33	1372.25619
834.655	1371.30179
834.979	1346.50025
835.304	1331.24994
835.629	1376.07412
835.953	1356.03641
836.278	1338.87393
836.602	1371.30179
836.926	1355.08263
837.251	1330.29711
837.575	1321.72323
837.899	1343.64011
838.223	1330.29711
838.547	1344.59345
838.871	1348.40719
839.195	1366.53037
839.519	1371.30179
839.843	1345.54683
840.167	1361.75984
840.491	1374.16508
840.814	1385.62148
841.138	1364.62205
841.462	1335.06165
841.785	1328.39155
842.108	1391.35163
842.432	1346.50025
842.755	1336.96772
843.079	1391.35163
843.402	1389.44143
843.725	1374.16508
844.048	1387.53139
844.371	1377.0287
844.694	1346.50025
845.017	1341.73353
845.34	1362.71388
845.663	1324.58086
845.986	1359.85189
846.308	1376.07412
846.631	1377.98331
846.954	1378.93795
847.276	1378.93795
847.599	1381.80211
847.921	1343.64011
848.244	1351.26787
848.566	1351.26787
848.888	1362.71388
849.211	1356.03641
849.533	1318.86593
849.855	1398.99383
850.177	1329.34431
850.499	1347.4537
850.821	1341.73353
851.143	1316.00896
851.465	1340.78029
851.786	1332.20281
852.108	1336.01466
852.43	1377.0287
852.751	1356.99022
853.073	1341.73353
853.394	1341.73353
853.716	1356.03641
854.037	1355.08263
854.359	1330.29711
854.68	1333.15572
855.001	1362.71388
855.322	1350.31428
855.643	1326.48613
855.964	1352.22151
856.285	1356.99022
856.606	1349.36072
856.927	1355.08263
857.248	1428.629
857.569	1316.00896
857.889	1385.62148
858.21	1335.06165
858.531	1349.36072
858.851	1371.30179
859.172	1356.99022
859.492	1351.26787
859.813	1377.98331
860.133	1355.08263
860.453	1337.92081
860.773	1312.20017
861.094	1376.07412
861.414	1375.11958
861.734	1347.4537
862.054	1341.73353
862.374	1341.73353
862.693	1377.98331
863.013	1364.62205
863.333	1368.43883
863.653	1341.73353
863.972	1361.75984
864.292	1387.53139
864.611	1376.07412
864.931	1379.89263
865.25	1398.03843
865.57	1363.66794
865.889	1352.22151
866.208	1321.72323
866.527	1352.22151
866.847	1355.08263
867.166	1367.48458
867.485	1401.86025
867.804	1356.99022
868.123	1336.96772
868.441	1361.75984
868.76	1385.62148
869.079	1354.12889
869.398	1361.75984
869.716	1356.03641
870.035	1413.32914
870.353	1374.16508
870.672	1369.39311
870.99	1354.12889
871.308	1311.24807
871.627	1349.36072
871.945	1378.93795
872.263	1365.57619
872.581	1401.86025
872.899	1353.17518
873.217	1371.30179
873.535	1342.6868
873.853	1363.66794
874.171	1374.16508
874.489	1374.16508
874.806	1342.6868
875.124	1382.7569
875.442	1371.30179
875.759	1353.17518
876.077	1375.11958
876.394	1365.57619
876.711	1354.12889
877.029	1331.24994
877.346	1390.39651
877.663	1370.34744
877.98	1356.99022
878.297	1352.22151
878.614	1351.26787
878.931	1336.96772
879.248	1373.21062
879.565	1336.96772
879.882	1335.06165
880.199	1376.07412
880.515	1373.21062
880.832	1365.57619
881.149	1374.16508
881.465	1347.4537
881.782	1339.82709
882.098	1371.30179
882.414	1416.19717
882.731	1361.75984
883.047	1368.43883
883.363	1399.94927
883.679	1331.24994
883.995	1319.81833
884.311	1355.08263
884.627	1363.66794
884.943	1345.54683
885.259	1357.94408
885.575	1351.26787
885.89	1316.00896
886.206	1319.81833
886.522	1338.87393
886.837	1382.7569
887.153	1394.21718
887.468	1340.78029
887.783	1379.89263
888.099	1375.11958
888.414	1352.22151
888.729	1333.15572
889.044	1332.20281
889.359	1320.77076
889.674	1350.31428
889.989	1345.54683
890.304	1412.3732
890.619	1335.06165
890.934	1374.16508
891.249	1338.87393
891.563	1346.50025
891.878	1348.40719
892.193	1373.21062
892.507	1372.25619
892.822	1366.53037
893.136	1362.71388
893.45	1360.80585
893.765	1395.17244
894.079	1335.06165
894.393	1351.26787
894.707	1370.34744
895.021	1399.94927
895.335	1335.06165
895.649	1400.90474
895.963	1392.30678
896.277	1326.48613
896.591	1434.3688
896.904	1359.85189
897.218	1324.58086
897.531	1317.91357
897.845	1339.82709
898.158	1339.82709
898.472	1355.08263
898.785	1377.0287
899.099	1352.22151
899.412	1357.94408
899.725	1354.12889
900.038	1365.57619
900.351	1376.07412
900.664	1336.96772
900.977	1370.34744
901.29	1352.22151
901.603	1355.08263
901.916	1336.96772
902.228	1382.7569
902.541	1356.99022
902.854	1381.80211
903.166	1332.20281
903.479	1370.34744
903.791	1336.01466
904.104	1357.94408
904.416	1365.57619
904.728	1374.16508
905.04	1373.21062
905.352	1364.62205
905.665	1332.20281
905.977	1398.99383
906.289	1361.75984
906.6	1329.34431
906.912	1323.62828
907.224	1326.48613
907.536	1336.96772
907.848	1373.21062
908.159	1350.31428
908.471	1372.25619
908.782	1314.10449
909.094	1327.43882
909.405	1364.62205
909.716	1362.71388
910.028	1350.31428
910.339	1374.16508
910.65	1336.96772
910.961	1374.16508
911.272	1406.63833
911.583	1381.80211
911.894	1386.57642
912.205	1324.58086
912.516	1343.64011
912.827	1377.98331
913.137	1380.84735
913.448	1330.29711
913.758	1383.71172
914.069	1358.89796
914.379	1303.63254
914.69	1336.96772
915	1340.78029
915.31	1341.73353
915.621	1344.59345
915.931	1370.34744
916.241	1293.16503
916.551	1379.89263
916.861	1344.59345
917.171	1379.89263
917.481	1354.12889
917.791	1343.64011
918.1	1287.45735
918.41	1331.24994
918.72	1356.03641
919.029	1347.4537
919.339	1363.66794
919.648	1336.01466
919.958	1370.34744
920.267	1359.85189
920.576	1330.29711
920.886	1336.01466
921.195	1330.29711
921.504	1359.85189
921.813	1356.03641
922.122	1354.12889
922.431	1348.40719
922.74	1432.45539
923.049	1366.53037
923.357	1381.80211
923.666	1320.77076
923.975	1371.30179
924.283	1335.06165
924.592	1374.16508
924.9	1321.72323
925.209	1356.03641
925.517	1325.53348
925.825	1340.78029
926.134	1329.34431
926.442	1373.21062
926.75	1472.66679
927.058	1343.64011
927.366	1360.80585
927.674	1370.34744
927.982	1336.96772
928.29	1391.35163
928.598	1348.40719
928.905	1335.06165
929.213	1343.64011
929.521	1350.31428
929.828	1316.96125
930.136	1392.30678
930.443	1325.53348
930.75	1336.01466
931.058	1324.58086
931.365	1376.07412
931.672	1387.53139
931.979	1343.64011
932.286	1376.07412
932.593	1353.17518
932.9	1356.03641
933.207	1374.16508
933.514	1392.30678
933.821	1355.08263
934.127	1338.87393
934.434	1358.89796
934.741	1327.43882
935.047	1342.6868
935.354	1305.53621
935.66	1343.64011
935.966	1360.80585
936.273	1354.12889
936.579	1367.48458
936.885	1407.59405
937.191	1327.43882
937.497	1361.75984
937.803	1359.85189
938.109	1367.48458
938.415	1341.73353
938.721	1360.80585
939.027	1353.17518
939.333	1349.36072
939.638	1328.39155
939.944	1369.39311
940.249	1342.6868
940.555	1386.57642
940.86	1353.17518
941.166	1334.10867
941.471	1388.48639
941.776	1373.21062
942.081	1341.73353
942.386	1360.80585
942.692	1347.4537
942.997	1320.77076
943.301	1374.16508
943.606	1343.64011
943.911	1320.77076
944.216	1334.10867
944.521	1335.06165
944.825	1332.20281
945.13	1361.75984
945.434	1389.44143
945.739	1352.22151
946.043	1337.92081
946.348	1368.43883
946.652	1336.01466
946.956	1348.40719
947.26	1336.96772
947.564	1336.01466
947.869	1329.34431
948.173	1332.20281
948.476	1365.57619
948.78	1356.03641
949.084	1356.99022
949.388	1374.16508
949.692	1296.01937
949.995	1345.54683
950.299	1356.99022
950.602	1337.92081
950.906	1340.78029
951.209	1367.48458
951.513	1355.08263
951.816	1315.05671
952.119	1340.78029
952.422	1313.15231
952.725	1361.75984
953.028	1363.66794
953.331	1350.31428
953.634	1392.30678
953.937	1601.37332
954.24	1373.21062
954.543	1344.59345
954.845	1384.66659
955.148	1375.11958
955.451	1352.22151
955.753	1385.62148
956.056	1388.48639
956.358	1357.94408
956.66	1308.39197
956.963	1329.34431
957.265	1372.25619
957.567	1343.64011
957.869	1331.24994
958.171	1329.34431
958.473	1341.73353
958.775	1310.296
959.077	1346.50025
959.379	1387.53139
959.68	1349.36072
959.982	1378.93795
960.284	1347.4537
960.585	1356.03641
960.887	1339.82709
961.188	1340.78029
961.49	1353.17518
961.791	1372.25619
962.092	1376.07412
962.393	1352.22151
962.694	1383.71172
962.996	1382.7569
963.297	1380.84735
963.597	1395.17244
963.898	1359.85189
964.199	1377.0287
964.5	1381.80211
964.801	1360.80585
965.101	1336.96772
965.402	1329.34431
965.703	1355.08263
966.003	1348.40719
966.303	1378.93795
966.604	1347.4537
966.904	1352.22151
967.204	1378.93795
967.504	1336.01466
967.805	1356.99022
968.105	1368.43883
968.405	1329.34431
968.705	1386.57642
969.004	1362.71388
969.304	1356.03641
969.604	1358.89796
969.904	1340.78029
970.203	1360.80585
970.503	1359.85189
970.802	1349.36072
971.102	1353.17518
971.401	1365.57619
971.701	1327.43882
972	1332.20281
972.299	1331.24994
972.598	1368.43883
972.897	1388.48639
973.196	1339.82709
973.495	1368.43883
973.794	1351.26787
974.093	1347.4537
974.392	1336.01466
974.691	1344.59345
974.989	1334.10867
975.288	1377.0287
975.587	1335.06165
975.885	1342.6868
976.184	1335.06165
976.482	1390.39651
976.78	1329.34431
977.078	1370.34744
977.377	1336.96772
977.675	1378.93795
977.973	1360.80585
978.271	1386.57642
978.569	1367.48458
978.867	1335.06165
979.165	1356.03641
979.462	1346.50025
979.76	1358.89796
980.058	1390.39651
980.355	1337.92081
980.653	1340.78029
980.95	1352.22151
981.248	1389.44143
981.545	1344.59345
981.842	1341.73353
982.14	1351.26787
982.437	1385.62148
982.734	1380.84735
983.031	1351.26787
983.328	1373.21062
983.625	1342.6868
983.922	1392.30678
984.218	1377.0287
984.515	1355.08263
984.812	1356.03641
985.108	1352.22151
985.405	1347.4537
985.702	1372.25619
985.998	1338.87393
986.294	1348.40719
986.591	1365.57619
986.887	1319.81833
987.183	1374.16508
987.479	1340.78029
987.775	1369.39311
988.071	1362.71388
988.367	1314.10449
988.663	1395.17244
988.959	1372.25619
989.255	1385.62148
989.551	1344.59345
989.846	1342.6868
990.142	1382.7569
990.437	1338.87393
990.733	1408.54981
991.028	1395.17244
991.324	1360.80585
991.619	1385.62148
991.914	1346.50025
992.209	1333.15572
992.504	1364.62205
992.799	1393.26196
993.094	1331.24994
993.389	1387.53139
993.684	1363.66794
993.979	1351.26787
994.274	1330.29711
994.568	1356.99022
994.863	1316.00896
995.157	1381.80211
995.452	1379.89263
995.746	1367.48458
996.041	1356.99022
996.335	1330.29711
996.629	1371.30179
996.924	1363.66794
997.218	1335.06165
997.512	1419.06552
997.806	1352.22151
998.1	1386.57642
998.394	1379.89263
998.687	1351.26787
998.981	1380.84735
999.275	1344.59345
999.568	1352.22151
999.862	1374.16508
1000.156	1353.17518
1000.449	1390.39651
1000.742	1388.48639
1001.036	1343.64011
1001.329	1321.72323
1001.622	1361.75984
1001.915	1349.36072
1002.209	1371.30179
1002.502	1349.36072
1002.794	1352.22151
1003.087	1388.48639
1003.38	1373.21062
1003.673	1380.84735
1003.966	1362.71388
1004.258	1370.34744
1004.551	1353.17518
1004.844	1353.17518
1005.136	1358.89796
1005.428	1346.50025
1005.721	1326.48613
1006.013	1370.34744
1006.305	1377.98331
1006.597	1318.86593
1006.89	1399.94927
1007.182	1334.10867
1007.474	1366.53037
1007.766	1362.71388
1008.057	1355.08263
1008.349	1357.94408
1008.641	1341.73353
1008.933	1360.80585
1009.224	1338.87393
1009.516	1369.39311
1009.807	1358.89796
1010.099	1354.12889
1010.39	1328.39155
1010.681	1329.34431
1010.973	1324.58086
1011.264	1344.59345
1011.555	1349.36072
1011.846	1355.08263
1012.137	1356.99022
1012.428	1352.22151
1012.719	1343.64011
1013.01	1334.10867
1013.3	1369.39311
1013.591	1348.40719
1013.882	1366.53037
1014.172	1339.82709
1014.463	1364.62205
1014.753	1344.59345
1015.044	1331.24994
1015.334	1358.89796
1015.624	1373.21062
1015.914	1356.99022
1016.205	1375.11958
1016.495	1396.12773
1016.785	1367.48458
1017.075	1340.78029
1017.365	1358.89796
1017.654	1377.98331
1017.944	1395.17244
1018.234	1376.07412
1018.524	1330.29711
1018.813	1318.86593
1019.103	1380.84735
1019.392	1329.34431
1019.681	1361.75984
1019.971	1325.53348
1020.26	1368.43883
1020.549	1420.97793
1020.838	1402.81579
1021.128	1368.43883
1021.417	1383.71172
1021.706	1407.59405
1021.994	1336.96772
1022.283	1370.34744
1022.572	1366.53037
1022.861	1345.54683
1023.149	1351.26787
1023.438	1345.54683
1023.727	1341.73353
1024.015	1436.28236
1024.303	1374.16508
1024.592	1356.99022
1024.88	1356.99022
1025.168	1334.10867
1025.456	1348.40719
1025.745	1425.75958
1026.033	1377.98331
1026.321	1338.87393
1026.608	1336.96772
1026.896	1398.03843
1027.184	1344.59345
1027.472	1331.24994
1027.76	1341.73353
1028.047	1368.43883
1028.335	1340.78029
1028.622	1351.26787
1028.91	1333.15572
1029.197	1350.31428
1029.484	1344.59345
1029.771	1365.57619
1030.059	1338.87393
1030.346	1384.66659
1030.633	1400.90474
1030.92	1321.72323
1031.207	1347.4537
1031.493	1378.93795
1031.78	1343.64011
1032.067	1329.34431
1032.354	1371.30179
1032.64	1351.26787
1032.927	1345.54683
1033.213	1394.21718
1033.5	1359.85189
1033.786	1338.87393
1034.072	1407.59405
1034.359	1371.30179
1034.645	1336.01466
1034.931	1376.07412
1035.217	1352.22151
1035.503	1346.50025
1035.789	1358.89796
1036.075	1377.98331
1036.36	1334.10867
1036.646	1326.48613
1036.932	1334.10867
1037.217	1366.53037
1037.503	1319.81833
1037.789	1321.72323
1038.074	1342.6868
1038.359	1316.96125
1038.645	1386.57642
1038.93	1381.80211
1039.215	1372.25619
1039.5	1320.77076
1039.785	1350.31428
1040.07	1333.15572
1040.355	1332.20281
1040.64	1330.29711
1040.925	1322.67574
1041.209	1317.91357
1041.494	1323.62828
1041.779	1309.34397
1042.063	1766.5085
1042.348	1304.58436
1042.632	1316.96125
1042.917	1335.06165
1043.201	1294.11644
1043.485	1286.5062
1043.769	1341.73353
1044.053	1324.58086
1044.337	1314.10449
1044.621	1317.91357
1044.905	1337.92081
1045.189	1289.35976
1045.473	1295.06788
1045.757	1271.29278
1046.04	1283.65296
1046.324	1276.99671
1046.607	1269.39177
1046.891	1295.06788
1047.174	1276.99671
