Data from uniphase1103p11777_USB4C031521__0__12-13-38-733.txt Node

Date: Wed May 06 12:13:38 CEST 2026
User: FIDOPA_3
Spectrometer: USB4C03152
Scans to average: 1
Trigger mode: 4
Integration Time (sec): 5.000000E-3
Electric dark correction enabled: true
Boxcar width: 0
XAxis mode: Wavelengths
Number of Pixels in Spectrum: 3648
>>>>>Begin Spectral Data<<<<<
445.929	-50.68723
446.14	-50.68723
446.351	-50.68723
446.562	4.60793
446.773	23.03965
446.984	-13.82379
447.194	41.47137
447.405	-36.35145
447.616	-56.83113
447.827	16.89574
448.038	-28.15957
448.249	53.75918
448.459	-32.25551
448.67	-50.68723
448.881	27.13559
449.092	29.18355
449.303	49.66324
449.513	12.7998
449.724	-95.74254
449.935	-38.39941
450.146	23.03965
450.356	-36.35145
450.567	-3.58395
450.778	29.18355
450.988	12.7998
451.199	-3.58395
451.41	20.99168
451.62	-36.35145
451.831	-5.63191
452.042	-7.67988
452.252	-11.77582
452.463	-48.63926
452.674	25.08762
452.884	-13.82379
453.095	53.75918
453.305	-93.69457
453.516	20.99168
453.727	-5.63191
453.937	84.47871
454.148	-17.91973
454.358	-42.49535
454.569	-3.58395
454.779	-36.35145
454.99	16.89574
455.2	41.47137
455.411	33.27949
455.621	-9.72785
455.832	12.7998
456.042	8.70387
456.253	4.60793
456.463	12.7998
456.674	2.55996
456.884	-5.63191
457.095	0.51199
457.305	-9.72785
457.515	25.08762
457.726	-28.15957
457.936	-73.21488
458.147	29.18355
458.357	16.89574
458.567	20.99168
458.778	-26.1116
458.988	-1.53598
459.198	20.99168
459.409	49.66324
459.619	14.84777
459.829	4.60793
460.039	8.70387
460.25	-19.9677
460.46	10.75184
460.67	2.55996
460.881	-69.11895
461.091	16.89574
461.301	-42.49535
461.511	41.47137
461.721	8.70387
461.932	57.85512
462.142	-24.06363
462.352	-75.26285
462.562	-50.68723
462.772	-97.79051
462.983	-3.58395
463.193	18.94371
463.403	-46.59129
463.613	-56.83113
463.823	-15.87176
464.033	-73.21488
464.243	-28.15957
464.453	-40.44738
464.664	31.23152
464.874	-7.67988
465.084	-26.1116
465.294	-30.20754
465.504	70.14293
465.714	12.7998
465.924	-13.82379
466.134	-22.01566
466.344	-40.44738
466.554	2.55996
466.764	14.84777
466.974	-26.1116
467.184	-19.9677
467.394	-26.1116
467.604	-50.68723
467.814	14.84777
468.024	55.80715
468.233	-34.30348
468.443	37.37543
468.653	20.99168
468.863	-95.74254
469.073	23.03965
469.283	-60.92707
469.493	8.70387
469.703	-28.15957
469.912	-22.01566
470.122	0.51199
470.332	-38.39941
470.542	-42.49535
470.752	6.6559
470.962	59.90309
471.171	-17.91973
471.381	41.47137
471.591	0.51199
471.801	2.55996
472.01	41.47137
472.22	-30.20754
472.43	6.6559
472.64	35.32746
472.849	-30.20754
473.059	-44.54332
473.269	10.75184
473.478	0.51199
473.688	25.08762
473.898	-36.35145
474.107	14.84777
474.317	-38.39941
474.527	6.6559
474.736	16.89574
474.946	29.18355
475.155	39.4234
475.365	6.6559
475.575	-58.8791
475.784	-56.83113
475.994	-22.01566
476.203	12.7998
476.413	18.94371
476.622	25.08762
476.832	20.99168
477.041	8.70387
477.251	23.03965
477.46	31.23152
477.67	20.99168
477.879	-38.39941
478.089	43.51934
478.298	-50.68723
478.508	2.55996
478.717	-48.63926
478.927	0.51199
479.136	0.51199
479.345	-28.15957
479.555	-5.63191
479.764	4.60793
479.974	8.70387
480.183	20.99168
480.392	35.32746
480.602	-38.39941
480.811	-30.20754
481.02	47.61527
481.23	-40.44738
481.439	-62.97504
481.648	59.90309
481.858	43.51934
482.067	8.70387
482.276	53.75918
482.485	-22.01566
482.695	-38.39941
482.904	-11.77582
483.113	18.94371
483.322	25.08762
483.532	33.27949
483.741	4.60793
483.95	8.70387
484.159	16.89574
484.368	45.5673
484.577	-17.91973
484.787	51.71121
484.996	10.75184
485.205	-40.44738
485.414	43.51934
485.623	-44.54332
485.832	25.08762
486.041	-67.07098
486.25	31.23152
486.459	-13.82379
486.669	47.61527
486.878	45.5673
487.087	96.76652
487.296	-22.01566
487.505	53.75918
487.714	-28.15957
487.923	47.61527
488.132	-67.07098
488.341	-77.31082
488.55	4.60793
488.759	10.75184
488.968	-28.15957
489.177	2.55996
489.385	-5.63191
489.594	0.51199
489.803	-34.30348
490.012	33.27949
490.221	-5.63191
490.43	14.84777
490.639	-36.35145
490.848	57.85512
491.057	14.84777
491.265	4.60793
491.474	-40.44738
491.683	23.03965
491.892	37.37543
492.101	-22.01566
492.31	-3.58395
492.518	-28.15957
492.727	12.7998
492.936	51.71121
493.145	-28.15957
493.353	8.70387
493.562	18.94371
493.771	66.04699
493.98	2.55996
494.188	-9.72785
494.397	45.5673
494.606	29.18355
494.814	33.27949
495.023	0.51199
495.232	57.85512
495.44	20.99168
495.649	94.71855
495.858	61.95105
496.066	27.13559
496.275	-30.20754
496.483	82.43074
496.692	-13.82379
496.901	61.95105
497.109	47.61527
497.318	23.03965
497.526	-75.26285
497.735	-73.21488
497.943	29.18355
498.152	45.5673
498.36	20.99168
498.569	-9.72785
498.777	-3.58395
498.986	66.04699
499.194	-7.67988
499.403	-40.44738
499.611	18.94371
499.82	-9.72785
500.028	20.99168
500.236	-30.20754
500.445	29.18355
500.653	23.03965
500.862	-42.49535
501.07	10.75184
501.278	-34.30348
501.487	-9.72785
501.695	68.09496
501.903	-22.01566
502.112	-1.53598
502.32	-65.02301
502.528	12.7998
502.737	-93.69457
502.945	29.18355
503.153	-36.35145
503.361	-44.54332
503.57	-15.87176
503.778	-28.15957
503.986	-7.67988
504.194	41.47137
504.403	-3.58395
504.611	-5.63191
504.819	4.60793
505.027	-11.77582
505.235	66.04699
505.443	43.51934
505.652	-38.39941
505.86	-48.63926
506.068	-5.63191
506.276	37.37543
506.484	-17.91973
506.692	-32.25551
506.9	-28.15957
507.108	-19.9677
507.316	76.28684
507.524	-87.55066
507.733	-15.87176
507.941	-1.53598
508.149	-15.87176
508.357	-36.35145
508.565	57.85512
508.773	-7.67988
508.981	16.89574
509.189	31.23152
509.397	10.75184
509.605	20.99168
509.812	-26.1116
510.02	-1.53598
510.228	41.47137
510.436	70.14293
510.644	80.38277
510.852	-24.06363
511.06	23.03965
511.268	-34.30348
511.476	14.84777
511.684	-32.25551
511.891	10.75184
512.099	70.14293
512.307	0.51199
512.515	25.08762
512.723	-60.92707
512.93	70.14293
513.138	29.18355
513.346	-28.15957
513.554	39.4234
513.761	18.94371
513.969	8.70387
514.177	-3.58395
514.385	66.04699
514.592	-19.9677
514.8	-65.02301
515.008	-34.30348
515.215	53.75918
515.423	20.99168
515.631	31.23152
515.838	-34.30348
516.046	70.14293
516.254	-42.49535
516.461	31.23152
516.669	-15.87176
516.876	63.99902
517.084	20.99168
517.292	29.18355
517.499	49.66324
517.707	57.85512
517.914	47.61527
518.122	-56.83113
518.329	-7.67988
518.537	-9.72785
518.744	86.52668
518.952	107.00637
519.159	55.80715
519.367	-36.35145
519.574	-65.02301
519.782	-7.67988
519.989	0.51199
520.197	-15.87176
520.404	-34.30348
520.611	0.51199
520.819	-15.87176
521.026	14.84777
521.234	45.5673
521.441	-40.44738
521.648	-5.63191
521.856	18.94371
522.063	-11.77582
522.27	10.75184
522.478	18.94371
522.685	29.18355
522.892	6.6559
523.1	-24.06363
523.307	-56.83113
523.514	33.27949
523.721	-1.53598
523.929	-7.67988
524.136	78.3348
524.343	53.75918
524.55	-38.39941
524.757	29.18355
524.965	-5.63191
525.172	10.75184
525.379	-42.49535
525.586	66.04699
525.793	63.99902
526	-13.82379
526.208	-38.39941
526.415	-17.91973
526.622	-3.58395
526.829	41.47137
527.036	-36.35145
527.243	-36.35145
527.45	33.27949
527.657	-1.53598
527.864	-52.7352
528.071	-26.1116
528.278	-50.68723
528.485	16.89574
528.692	49.66324
528.899	-26.1116
529.106	14.84777
529.313	-5.63191
529.52	-42.49535
529.727	111.1023
529.934	-15.87176
530.141	47.61527
530.348	-28.15957
530.555	14.84777
530.762	-73.21488
530.968	-34.30348
531.175	29.18355
531.382	18.94371
531.589	0.51199
531.796	-7.67988
532.003	2.55996
532.21	-9.72785
532.416	18.94371
532.623	-7.67988
532.83	35.32746
533.037	-34.30348
533.243	-46.59129
533.45	8.70387
533.657	-11.77582
533.864	-9.72785
534.07	72.1909
534.277	-9.72785
534.484	18.94371
534.691	20.99168
534.897	-17.91973
535.104	10.75184
535.311	8.70387
535.517	6.6559
535.724	-15.87176
535.93	41.47137
536.137	14.84777
536.344	-28.15957
536.55	20.99168
536.757	-38.39941
536.963	31.23152
537.17	-52.7352
537.377	-15.87176
537.583	35.32746
537.79	12.7998
537.996	76.28684
538.203	14.84777
538.409	-7.67988
538.616	59.90309
538.822	-3.58395
539.029	29.18355
539.235	-9.72785
539.442	74.23887
539.648	35.32746
539.854	14.84777
540.061	-7.67988
540.267	20.99168
540.474	10.75184
540.68	-5.63191
540.886	-93.69457
541.093	-22.01566
541.299	-38.39941
541.505	-24.06363
541.712	33.27949
541.918	25.08762
542.124	-22.01566
542.331	72.1909
542.537	33.27949
542.743	-40.44738
542.949	-5.63191
543.156	104.9584
543.362	-30.20754
543.568	70.14293
543.774	-1.53598
543.981	-24.06363
544.187	-46.59129
544.393	-15.87176
544.599	-22.01566
544.805	-40.44738
545.011	23.03965
545.218	27.13559
545.424	-1.53598
545.63	8.70387
545.836	-5.63191
546.042	68.09496
546.248	80.38277
546.454	-28.15957
546.66	25.08762
546.866	20.99168
547.072	-3.58395
547.278	25.08762
547.484	20.99168
547.69	-22.01566
547.896	0.51199
548.102	66.04699
548.308	2.55996
548.514	29.18355
548.72	72.1909
548.926	35.32746
549.132	27.13559
549.338	-11.77582
549.544	4.60793
549.75	-81.40676
549.956	49.66324
550.162	45.5673
550.368	6.6559
550.574	-19.9677
550.779	-54.78316
550.985	29.18355
551.191	70.14293
551.397	-19.9677
551.603	-15.87176
551.808	-13.82379
552.014	6.6559
552.22	4.60793
552.426	31.23152
552.632	6.6559
552.837	41.47137
553.043	-28.15957
553.249	-28.15957
553.454	-40.44738
553.66	31.23152
553.866	-34.30348
554.071	45.5673
554.277	0.51199
554.483	57.85512
554.688	14.84777
554.894	-26.1116
555.1	10.75184
555.305	55.80715
555.511	-36.35145
555.716	76.28684
555.922	33.27949
556.128	-19.9677
556.333	25.08762
556.539	-87.55066
556.744	45.5673
556.95	18.94371
557.155	2.55996
557.361	0.51199
557.566	-3.58395
557.772	14.84777
557.977	-11.77582
558.183	18.94371
558.388	-5.63191
558.594	59.90309
558.799	-60.92707
559.004	31.23152
559.21	90.62262
559.415	41.47137
559.621	47.61527
559.826	63.99902
560.031	10.75184
560.237	35.32746
560.442	66.04699
560.647	33.27949
560.853	14.84777
561.058	68.09496
561.263	-67.07098
561.468	20.99168
561.674	49.66324
561.879	20.99168
562.084	84.47871
562.289	-5.63191
562.495	-42.49535
562.7	20.99168
562.905	25.08762
563.11	0.51199
563.315	61.95105
563.521	-40.44738
563.726	-28.15957
563.931	-17.91973
564.136	10.75184
564.341	-17.91973
564.546	0.51199
564.751	43.51934
564.956	-85.5027
565.162	27.13559
565.367	33.27949
565.572	-58.8791
565.777	2.55996
565.982	-32.25551
566.187	20.99168
566.392	-19.9677
566.597	74.23887
566.802	-34.30348
567.007	45.5673
567.212	51.71121
567.417	10.75184
567.622	35.32746
567.827	2.55996
568.031	12.7998
568.236	-28.15957
568.441	-30.20754
568.646	-50.68723
568.851	-11.77582
569.056	-9.72785
569.261	-24.06363
569.466	0.51199
569.67	-30.20754
569.875	-48.63926
570.08	14.84777
570.285	-40.44738
570.49	-13.82379
570.694	4.60793
570.899	31.23152
571.104	20.99168
571.309	8.70387
571.513	-32.25551
571.718	-22.01566
571.923	-62.97504
572.128	-85.5027
572.332	53.75918
572.537	0.51199
572.742	35.32746
572.946	-24.06363
573.151	47.61527
573.355	16.89574
573.56	57.85512
573.765	16.89574
573.969	68.09496
574.174	-44.54332
574.378	16.89574
574.583	-1.53598
574.788	6.6559
574.992	8.70387
575.197	-67.07098
575.401	61.95105
575.606	29.18355
575.81	10.75184
576.015	43.51934
576.219	-24.06363
576.424	-17.91973
576.628	33.27949
576.832	59.90309
577.037	-24.06363
577.241	49.66324
577.446	-22.01566
577.65	-28.15957
577.854	-28.15957
578.059	66.04699
578.263	-13.82379
578.467	76.28684
578.672	-87.55066
578.876	-3.58395
579.08	2.55996
579.285	49.66324
579.489	35.32746
579.693	-11.77582
579.898	37.37543
580.102	23.03965
580.306	16.89574
580.51	12.7998
580.715	23.03965
580.919	25.08762
581.123	49.66324
581.327	41.47137
581.531	12.7998
581.735	-11.77582
581.94	53.75918
582.144	41.47137
582.348	-42.49535
582.552	-56.83113
582.756	37.37543
582.96	-58.8791
583.164	35.32746
583.368	66.04699
583.572	-5.63191
583.776	-7.67988
583.98	53.75918
584.185	35.32746
584.389	-24.06363
584.593	31.23152
584.797	14.84777
585	45.5673
585.204	107.00637
585.408	-30.20754
585.612	-1.53598
585.816	27.13559
586.02	-28.15957
586.224	-28.15957
586.428	-7.67988
586.632	-54.78316
586.836	-99.83848
587.04	-9.72785
587.244	-19.9677
587.447	10.75184
587.651	-30.20754
587.855	49.66324
588.059	10.75184
588.263	39.4234
588.466	-7.67988
588.67	33.27949
588.874	-22.01566
589.078	25.08762
589.281	-52.7352
589.485	72.1909
589.689	-52.7352
589.893	4.60793
590.096	27.13559
590.3	23.03965
590.504	6.6559
590.707	33.27949
590.911	4.60793
591.115	-13.82379
591.318	16.89574
591.522	35.32746
591.725	-36.35145
591.929	-1.53598
592.133	-13.82379
592.336	31.23152
592.54	4.60793
592.743	6.6559
592.947	33.27949
593.15	53.75918
593.354	-54.78316
593.557	16.89574
593.761	-28.15957
593.964	31.23152
594.168	14.84777
594.371	43.51934
594.575	-52.7352
594.778	-34.30348
594.981	6.6559
595.185	39.4234
595.388	4.60793
595.592	-11.77582
595.795	-24.06363
595.998	35.32746
596.202	61.95105
596.405	-11.77582
596.608	16.89574
596.812	-17.91973
597.015	16.89574
597.218	51.71121
597.421	27.13559
597.625	12.7998
597.828	-3.58395
598.031	55.80715
598.234	-19.9677
598.438	-22.01566
598.641	-15.87176
598.844	72.1909
599.047	51.71121
599.25	51.71121
599.453	-3.58395
599.657	-13.82379
599.86	-13.82379
600.063	-30.20754
600.266	20.99168
600.469	102.91043
600.672	51.71121
600.875	82.43074
601.078	-13.82379
601.281	8.70387
601.484	45.5673
601.687	-19.9677
601.89	-3.58395
602.093	55.80715
602.296	4.60793
602.499	51.71121
602.702	2.55996
602.905	-24.06363
603.108	0.51199
603.311	70.14293
603.514	25.08762
603.717	29.18355
603.92	2.55996
604.123	68.09496
604.326	49.66324
604.529	47.61527
604.731	23.03965
604.934	39.4234
605.137	94.71855
605.34	51.71121
605.543	8.70387
605.745	-30.20754
605.948	68.09496
606.151	74.23887
606.354	47.61527
606.557	41.47137
606.759	25.08762
606.962	31.23152
607.165	41.47137
607.367	0.51199
607.57	2.55996
607.773	14.84777
607.975	70.14293
608.178	102.91043
608.381	66.04699
608.583	-52.7352
608.786	2.55996
608.989	66.04699
609.191	25.08762
609.394	25.08762
609.596	35.32746
609.799	18.94371
610.001	31.23152
610.204	88.57465
610.406	63.99902
610.609	43.51934
610.811	63.99902
611.014	51.71121
611.216	41.47137
611.419	6.6559
611.621	45.5673
611.824	37.37543
612.026	31.23152
612.229	-32.25551
612.431	12.7998
612.633	14.84777
612.836	29.18355
613.038	47.61527
613.24	84.47871
613.443	8.70387
613.645	33.27949
613.847	12.7998
614.05	45.5673
614.252	8.70387
614.454	45.5673
614.657	-36.35145
614.859	-1.53598
615.061	-5.63191
615.263	16.89574
615.466	76.28684
615.668	55.80715
615.87	18.94371
616.072	8.70387
616.274	6.6559
616.476	-28.15957
616.679	33.27949
616.881	-48.63926
617.083	0.51199
617.285	78.3348
617.487	-19.9677
617.689	-22.01566
617.891	41.47137
618.093	12.7998
618.295	4.60793
618.497	-24.06363
618.699	4.60793
618.901	33.27949
619.103	66.04699
619.305	74.23887
619.507	37.37543
619.709	23.03965
619.911	53.75918
620.113	20.99168
620.315	6.6559
620.517	92.67059
620.719	53.75918
620.921	49.66324
621.123	66.04699
621.325	-67.07098
621.527	53.75918
621.728	-34.30348
621.93	53.75918
622.132	-1.53598
622.334	10.75184
622.536	20.99168
622.737	53.75918
622.939	53.75918
623.141	-7.67988
623.343	-1.53598
623.544	84.47871
623.746	39.4234
623.948	86.52668
624.15	84.47871
624.351	88.57465
624.553	61.95105
624.755	74.23887
624.956	63.99902
625.158	80.38277
625.36	213.50074
625.561	213.50074
625.763	193.02105
625.964	160.25355
626.166	129.53402
626.367	121.34215
626.569	78.3348
626.771	90.62262
626.972	121.34215
627.174	166.39746
627.375	156.15762
627.577	188.92512
627.778	70.14293
627.98	80.38277
628.181	102.91043
628.382	123.39012
628.584	117.24621
628.785	104.9584
628.987	205.30887
629.188	182.78121
629.39	184.82918
629.591	184.82918
629.792	182.78121
629.994	389.62605
630.195	422.39355
630.396	342.52277
630.598	457.20902
630.799	893.42637
631	4565.43434
631.201	15970.5723
631.403	38107.06652
631.604	64392.74543
631.805	64392.74543
632.006	64392.74543
632.208	64392.74543
632.409	64392.74543
632.61	47558.4423
632.811	22309.03559
633.012	17580.27574
633.214	10424.67293
633.415	5773.7359
633.616	3033.55371
633.817	1456.61777
634.018	707.06121
634.219	539.12777
634.42	377.33824
634.621	160.25355
634.822	172.54137
635.023	168.44543
635.224	111.1023
635.425	133.62996
635.626	156.15762
635.827	74.23887
636.028	119.29418
636.229	68.09496
636.43	92.67059
636.631	74.23887
636.832	92.67059
637.033	27.13559
637.234	86.52668
637.435	125.43809
637.636	63.99902
637.837	66.04699
638.037	96.76652
638.238	39.4234
638.439	63.99902
638.64	223.74059
638.841	319.99512
639.042	539.12777
639.242	518.64809
639.443	535.03184
639.644	256.50809
639.845	139.77387
640.045	135.67793
640.246	135.67793
640.447	70.14293
640.648	111.1023
640.848	66.04699
641.049	72.1909
641.25	16.89574
641.45	70.14293
641.651	100.86246
641.851	29.18355
642.052	6.6559
642.253	37.37543
642.453	31.23152
642.654	37.37543
642.854	-15.87176
643.055	4.60793
643.255	104.9584
643.456	68.09496
643.656	94.71855
643.857	16.89574
644.057	-24.06363
644.258	8.70387
644.458	55.80715
644.659	35.32746
644.859	59.90309
645.06	-46.59129
645.26	4.60793
645.46	-36.35145
645.661	16.89574
645.861	2.55996
646.062	41.47137
646.262	4.60793
646.462	-7.67988
646.663	57.85512
646.863	-38.39941
647.063	14.84777
647.263	12.7998
647.464	-15.87176
647.664	33.27949
647.864	-3.58395
648.064	41.47137
648.265	-34.30348
648.465	37.37543
648.665	-15.87176
648.865	53.75918
649.065	2.55996
649.266	-24.06363
649.466	0.51199
649.666	12.7998
649.866	33.27949
650.066	59.90309
650.266	-9.72785
650.466	37.37543
650.666	23.03965
650.866	-3.58395
651.067	25.08762
651.267	31.23152
651.467	-73.21488
651.667	37.37543
651.867	0.51199
652.067	53.75918
652.267	-24.06363
652.466	18.94371
652.666	25.08762
652.866	-38.39941
653.066	10.75184
653.266	8.70387
653.466	33.27949
653.666	33.27949
653.866	10.75184
654.066	-7.67988
654.266	68.09496
654.465	12.7998
654.665	66.04699
654.865	55.80715
655.065	8.70387
655.265	10.75184
655.464	86.52668
655.664	10.75184
655.864	-7.67988
656.064	-19.9677
656.263	59.90309
656.463	8.70387
656.663	-30.20754
656.862	-13.82379
657.062	-44.54332
657.262	-22.01566
657.461	-24.06363
657.661	18.94371
657.861	-54.78316
658.06	-3.58395
658.26	92.67059
658.459	-15.87176
658.659	51.71121
658.858	12.7998
659.058	29.18355
659.258	-44.54332
659.457	-11.77582
659.657	20.99168
659.856	45.5673
660.056	47.61527
660.255	41.47137
660.454	53.75918
660.654	25.08762
660.853	29.18355
661.053	8.70387
661.252	-28.15957
661.452	-5.63191
661.651	20.99168
661.85	-17.91973
662.05	25.08762
662.249	2.55996
662.448	-26.1116
662.648	29.18355
662.847	-3.58395
663.046	-28.15957
663.245	31.23152
663.445	-3.58395
663.644	51.71121
663.843	72.1909
664.042	-3.58395
664.242	-54.78316
664.441	4.60793
664.64	2.55996
664.839	53.75918
665.038	4.60793
665.237	-36.35145
665.437	-34.30348
665.636	-56.83113
665.835	-13.82379
666.034	49.66324
666.233	23.03965
666.432	57.85512
666.631	14.84777
666.83	82.43074
667.029	29.18355
667.228	59.90309
667.427	-58.8791
667.626	29.18355
667.825	-30.20754
668.024	86.52668
668.223	-60.92707
668.422	27.13559
668.621	-26.1116
668.82	-44.54332
669.019	14.84777
669.218	12.7998
669.417	2.55996
669.615	37.37543
669.814	-7.67988
670.013	37.37543
670.212	12.7998
670.411	45.5673
670.609	-26.1116
670.808	59.90309
671.007	-24.06363
671.206	-3.58395
671.405	74.23887
671.603	37.37543
671.802	-5.63191
672.001	-3.58395
672.199	-13.82379
672.398	-28.15957
672.597	20.99168
672.795	20.99168
672.994	-26.1116
673.193	29.18355
673.391	-50.68723
673.59	57.85512
673.789	33.27949
673.987	16.89574
674.186	-11.77582
674.384	-1.53598
674.583	39.4234
674.781	25.08762
674.98	-52.7352
675.178	-22.01566
675.377	-9.72785
675.575	4.60793
675.774	-30.20754
675.972	45.5673
676.171	8.70387
676.369	57.85512
676.567	-9.72785
676.766	27.13559
676.964	-44.54332
677.163	12.7998
677.361	4.60793
677.559	14.84777
677.758	-30.20754
677.956	-7.67988
678.154	23.03965
678.353	-7.67988
678.551	49.66324
678.749	-15.87176
678.947	-7.67988
679.146	-38.39941
679.344	61.95105
679.542	14.84777
679.74	70.14293
679.938	2.55996
680.137	-11.77582
680.335	-30.20754
680.533	2.55996
680.731	59.90309
680.929	-19.9677
681.127	6.6559
681.325	12.7998
681.523	35.32746
681.721	-81.40676
681.92	49.66324
682.118	-22.01566
682.316	53.75918
682.514	-7.67988
682.712	80.38277
682.91	-13.82379
683.108	-22.01566
683.306	20.99168
683.504	-15.87176
683.701	74.23887
683.899	-52.7352
684.097	14.84777
684.295	-9.72785
684.493	-7.67988
684.691	35.32746
684.889	-26.1116
685.087	-9.72785
685.284	-7.67988
685.482	-26.1116
685.68	27.13559
685.878	-46.59129
686.076	-11.77582
686.273	129.53402
686.471	-17.91973
686.669	80.38277
686.867	-32.25551
687.064	23.03965
687.262	-24.06363
687.46	14.84777
687.657	-3.58395
687.855	-34.30348
688.053	10.75184
688.25	70.14293
688.448	-3.58395
688.646	-5.63191
688.843	16.89574
689.041	-3.58395
689.238	31.23152
689.436	8.70387
689.633	-11.77582
689.831	66.04699
690.029	29.18355
690.226	-11.77582
690.424	49.66324
690.621	-26.1116
690.818	-42.49535
691.016	70.14293
691.213	-26.1116
691.411	-1.53598
691.608	12.7998
691.806	84.47871
692.003	25.08762
692.2	-26.1116
692.398	57.85512
692.595	10.75184
692.792	23.03965
692.99	12.7998
693.187	-1.53598
693.384	51.71121
693.582	-34.30348
693.779	-56.83113
693.976	-34.30348
694.173	25.08762
694.371	8.70387
694.568	37.37543
694.765	-19.9677
694.962	2.55996
695.159	31.23152
695.356	-26.1116
695.554	35.32746
695.751	25.08762
695.948	27.13559
696.145	6.6559
696.342	-13.82379
696.539	-28.15957
696.736	-40.44738
696.933	-28.15957
697.13	-30.20754
697.327	-38.39941
697.524	74.23887
697.721	-28.15957
697.918	-97.79051
698.115	12.7998
698.312	-9.72785
698.509	-48.63926
698.706	37.37543
698.903	37.37543
699.1	-26.1116
699.297	29.18355
699.494	-56.83113
699.691	-52.7352
699.887	-32.25551
700.084	23.03965
700.281	-22.01566
700.478	-22.01566
700.675	-28.15957
700.871	53.75918
701.068	49.66324
701.265	-7.67988
701.462	-15.87176
701.658	-1.53598
701.855	63.99902
702.052	20.99168
702.249	-7.67988
702.445	53.75918
702.642	-17.91973
702.839	29.18355
703.035	2.55996
703.232	47.61527
703.428	-19.9677
703.625	12.7998
703.822	-46.59129
704.018	-17.91973
704.215	-24.06363
704.411	45.5673
704.608	12.7998
704.804	4.60793
705.001	70.14293
705.197	23.03965
705.394	37.37543
705.59	-73.21488
705.787	-36.35145
705.983	12.7998
706.18	31.23152
706.376	29.18355
706.572	20.99168
706.769	-7.67988
706.965	-22.01566
707.161	90.62262
707.358	-28.15957
707.554	-11.77582
707.75	4.60793
707.947	18.94371
708.143	10.75184
708.339	-22.01566
708.536	-54.78316
708.732	-5.63191
708.928	23.03965
709.124	-1.53598
709.32	-1.53598
709.517	49.66324
709.713	18.94371
709.909	43.51934
710.105	0.51199
710.301	4.60793
710.497	-13.82379
710.693	16.89574
710.89	-44.54332
711.086	37.37543
711.282	6.6559
711.478	-24.06363
711.674	4.60793
711.87	-15.87176
712.066	-36.35145
712.262	-15.87176
712.458	-42.49535
712.654	-11.77582
712.85	35.32746
713.046	-54.78316
713.242	18.94371
713.438	70.14293
713.633	-22.01566
713.829	20.99168
714.025	-46.59129
714.221	78.3348
714.417	-34.30348
714.613	-48.63926
714.809	27.13559
715.004	37.37543
715.2	-65.02301
715.396	78.3348
715.592	-40.44738
715.788	25.08762
715.983	-93.69457
716.179	-1.53598
716.375	-13.82379
716.57	-28.15957
716.766	51.71121
716.962	-19.9677
717.157	-11.77582
717.353	25.08762
717.549	-42.49535
717.744	-17.91973
717.94	-26.1116
718.136	2.55996
718.331	-58.8791
718.527	10.75184
718.722	-24.06363
718.918	-30.20754
719.113	-48.63926
719.309	-58.8791
719.504	-30.20754
719.7	-46.59129
719.895	18.94371
720.091	10.75184
720.286	12.7998
720.482	14.84777
720.677	23.03965
720.872	-42.49535
721.068	10.75184
721.263	0.51199
721.458	33.27949
721.654	-28.15957
721.849	-69.11895
722.044	-13.82379
722.24	-38.39941
722.435	143.8698
722.63	-26.1116
722.826	14.84777
723.021	39.4234
723.216	57.85512
723.411	-28.15957
723.606	16.89574
723.802	-7.67988
723.997	-34.30348
724.192	16.89574
724.387	98.81449
724.582	-17.91973
724.777	12.7998
724.973	-67.07098
725.168	-13.82379
725.363	31.23152
725.558	-13.82379
725.753	-62.97504
725.948	6.6559
726.143	37.37543
726.338	68.09496
726.533	18.94371
726.728	33.27949
726.923	29.18355
727.118	2.55996
727.313	68.09496
727.508	-1.53598
727.703	39.4234
727.897	8.70387
728.092	29.18355
728.287	47.61527
728.482	-1.53598
728.677	47.61527
728.872	14.84777
729.067	8.70387
729.261	14.84777
729.456	57.85512
729.651	18.94371
729.846	25.08762
730.04	41.47137
730.235	-83.45473
730.43	12.7998
730.625	-46.59129
730.819	-7.67988
731.014	68.09496
731.209	-36.35145
731.403	31.23152
731.598	20.99168
731.793	-7.67988
731.987	49.66324
732.182	49.66324
732.376	12.7998
732.571	33.27949
732.765	0.51199
732.96	33.27949
733.155	47.61527
733.349	-15.87176
733.544	41.47137
733.738	-3.58395
733.932	20.99168
734.127	37.37543
734.321	-3.58395
734.516	-19.9677
734.71	-13.82379
734.905	-15.87176
735.099	-7.67988
735.293	-15.87176
735.488	18.94371
735.682	37.37543
735.876	14.84777
736.071	31.23152
736.265	-24.06363
736.459	39.4234
736.654	-38.39941
736.848	33.27949
737.042	-5.63191
737.236	-22.01566
737.431	-3.58395
737.625	-7.67988
737.819	33.27949
738.013	27.13559
738.207	29.18355
738.401	-9.72785
738.596	20.99168
738.79	23.03965
738.984	8.70387
739.178	-11.77582
739.372	-5.63191
739.566	55.80715
739.76	72.1909
739.954	-36.35145
740.148	-54.78316
740.342	-34.30348
740.536	102.91043
740.73	49.66324
740.924	-1.53598
741.118	-28.15957
741.312	-19.9677
741.506	2.55996
741.7	-17.91973
741.894	10.75184
742.087	-9.72785
742.281	-28.15957
742.475	-79.35879
742.669	-5.63191
742.863	-11.77582
743.057	-19.9677
743.25	70.14293
743.444	86.52668
743.638	-26.1116
743.832	12.7998
744.025	-13.82379
744.219	29.18355
744.413	-9.72785
744.607	20.99168
744.8	-24.06363
744.994	43.51934
745.188	-40.44738
745.381	23.03965
745.575	-5.63191
745.768	-1.53598
745.962	20.99168
746.156	2.55996
746.349	8.70387
746.543	-5.63191
746.736	-5.63191
746.93	31.23152
747.123	-44.54332
747.317	25.08762
747.51	0.51199
747.704	-58.8791
747.897	14.84777
748.091	74.23887
748.284	8.70387
748.478	29.18355
748.671	-1.53598
748.864	14.84777
749.058	8.70387
749.251	-3.58395
749.444	-48.63926
749.638	12.7998
749.831	10.75184
750.024	-7.67988
750.218	12.7998
750.411	-13.82379
750.604	-24.06363
750.797	47.61527
750.991	-34.30348
751.184	-36.35145
751.377	57.85512
751.57	-11.77582
751.763	-13.82379
751.956	43.51934
752.15	2.55996
752.343	-22.01566
752.536	-3.58395
752.729	-22.01566
752.922	25.08762
753.115	51.71121
753.308	-17.91973
753.501	18.94371
753.694	12.7998
753.887	-38.39941
754.08	-34.30348
754.273	49.66324
754.466	-3.58395
754.659	-24.06363
754.852	-7.67988
755.045	-83.45473
755.238	-26.1116
755.431	-30.20754
755.624	41.47137
755.817	-17.91973
756.009	-22.01566
756.202	25.08762
756.395	2.55996
756.588	-3.58395
756.781	-13.82379
756.973	78.3348
757.166	12.7998
757.359	45.5673
757.552	-28.15957
757.744	-69.11895
757.937	-34.30348
758.13	-13.82379
758.322	-13.82379
758.515	0.51199
758.708	68.09496
758.9	-13.82379
759.093	4.60793
759.286	59.90309
759.478	8.70387
759.671	80.38277
759.863	-65.02301
760.056	-28.15957
760.248	49.66324
760.441	31.23152
760.633	-24.06363
760.826	23.03965
761.018	2.55996
761.211	-30.20754
761.403	70.14293
761.596	47.61527
761.788	-56.83113
761.981	23.03965
762.173	0.51199
762.365	-34.30348
762.558	57.85512
762.75	47.61527
762.942	0.51199
763.135	53.75918
763.327	-62.97504
763.519	43.51934
763.712	18.94371
763.904	-22.01566
764.096	14.84777
764.288	-11.77582
764.481	-15.87176
764.673	-22.01566
764.865	12.7998
765.057	8.70387
765.249	-56.83113
765.441	-3.58395
765.634	-5.63191
765.826	35.32746
766.018	35.32746
766.21	115.19824
766.402	-15.87176
766.594	-19.9677
766.786	-46.59129
766.978	16.89574
767.17	-24.06363
767.362	-9.72785
767.554	29.18355
767.746	14.84777
767.938	25.08762
768.13	88.57465
768.322	8.70387
768.514	53.75918
768.706	59.90309
768.898	20.99168
769.089	-1.53598
769.281	57.85512
769.473	66.04699
769.665	-3.58395
769.857	45.5673
770.049	8.70387
770.24	-15.87176
770.432	31.23152
770.624	8.70387
770.816	55.80715
771.007	8.70387
771.199	16.89574
771.391	-7.67988
771.582	-36.35145
771.774	-71.16691
771.966	37.37543
772.157	39.4234
772.349	96.76652
772.541	14.84777
772.732	-7.67988
772.924	-15.87176
773.115	-19.9677
773.307	41.47137
773.498	18.94371
773.69	-11.77582
773.881	49.66324
774.073	-15.87176
774.264	43.51934
774.456	45.5673
774.647	-69.11895
774.839	47.61527
775.03	-9.72785
775.221	-7.67988
775.413	29.18355
775.604	-17.91973
775.796	-17.91973
775.987	61.95105
776.178	-56.83113
776.37	-65.02301
776.561	47.61527
776.752	59.90309
776.943	39.4234
777.135	43.51934
777.326	14.84777
777.517	-32.25551
777.708	18.94371
777.899	-9.72785
778.091	-5.63191
778.282	-9.72785
778.473	6.6559
778.664	-34.30348
778.855	41.47137
779.046	4.60793
779.237	16.89574
779.428	-24.06363
779.62	-15.87176
779.811	8.70387
780.002	16.89574
780.193	-62.97504
780.384	18.94371
780.575	29.18355
780.766	98.81449
780.957	14.84777
781.148	4.60793
781.338	27.13559
781.529	-44.54332
781.72	-15.87176
781.911	-28.15957
782.102	-46.59129
782.293	12.7998
782.484	18.94371
782.674	4.60793
782.865	-60.92707
783.056	-28.15957
783.247	25.08762
783.438	53.75918
783.628	8.70387
783.819	57.85512
784.01	-40.44738
784.201	-30.20754
784.391	-5.63191
784.582	6.6559
784.773	61.95105
784.963	-24.06363
785.154	-22.01566
785.344	18.94371
785.535	6.6559
785.726	-52.7352
785.916	35.32746
786.107	-24.06363
786.297	49.66324
786.488	20.99168
786.678	4.60793
786.869	-75.26285
787.059	-3.58395
787.25	-7.67988
787.44	-40.44738
787.631	25.08762
787.821	-28.15957
788.012	8.70387
788.202	66.04699
788.392	-17.91973
788.583	-24.06363
788.773	45.5673
788.963	-22.01566
789.154	-34.30348
789.344	-40.44738
789.534	-7.67988
789.724	57.85512
789.915	0.51199
790.105	20.99168
790.295	-13.82379
790.485	-17.91973
790.676	0.51199
790.866	-56.83113
791.056	29.18355
791.246	-13.82379
791.436	12.7998
791.626	-5.63191
791.816	8.70387
792.007	-24.06363
792.197	-11.77582
792.387	-5.63191
792.577	2.55996
792.767	29.18355
792.957	-22.01566
793.147	31.23152
793.337	55.80715
793.527	-11.77582
793.717	37.37543
793.907	61.95105
794.097	14.84777
794.287	4.60793
794.476	-15.87176
794.666	14.84777
794.856	57.85512
795.046	12.7998
795.236	33.27949
795.426	39.4234
795.615	2.55996
795.805	18.94371
795.995	80.38277
796.185	-19.9677
796.375	-5.63191
796.564	-48.63926
796.754	16.89574
796.944	-13.82379
797.133	59.90309
797.323	2.55996
797.513	-26.1116
797.702	6.6559
797.892	2.55996
798.082	0.51199
798.271	18.94371
798.461	-28.15957
798.65	10.75184
798.84	33.27949
799.029	-36.35145
799.219	41.47137
799.408	-46.59129
799.598	-3.58395
799.787	53.75918
799.977	31.23152
800.166	-36.35145
800.356	6.6559
800.545	-48.63926
800.735	-19.9677
800.924	45.5673
801.113	4.60793
801.303	-13.82379
801.492	6.6559
801.681	10.75184
801.871	4.60793
802.06	-69.11895
802.249	-1.53598
802.438	-3.58395
802.628	-7.67988
802.817	14.84777
803.006	41.47137
803.195	-7.67988
803.385	-85.5027
803.574	33.27949
803.763	10.75184
803.952	31.23152
804.141	-44.54332
804.33	49.66324
804.519	-7.67988
804.708	-11.77582
804.897	12.7998
805.087	18.94371
805.276	-73.21488
805.465	35.32746
805.654	8.70387
805.843	-36.35145
806.032	25.08762
806.22	59.90309
806.409	27.13559
806.598	-5.63191
806.787	35.32746
806.976	-28.15957
807.165	-19.9677
807.354	-48.63926
807.543	23.03965
807.732	12.7998
807.92	-13.82379
808.109	4.60793
808.298	-3.58395
808.487	18.94371
808.676	23.03965
808.864	-15.87176
809.053	2.55996
809.242	-38.39941
809.43	-30.20754
809.619	-9.72785
809.808	-34.30348
809.996	-1.53598
810.185	-48.63926
810.374	23.03965
810.562	8.70387
810.751	-11.77582
810.939	-62.97504
811.128	18.94371
811.317	51.71121
811.505	-34.30348
811.694	-38.39941
811.882	-32.25551
812.071	-9.72785
812.259	-11.77582
812.448	-17.91973
812.636	-17.91973
812.824	20.99168
813.013	-38.39941
813.201	2.55996
813.39	-13.82379
813.578	12.7998
813.766	31.23152
813.955	-44.54332
814.143	68.09496
814.331	-36.35145
814.519	20.99168
814.708	-52.7352
814.896	45.5673
815.084	12.7998
815.272	16.89574
815.461	-32.25551
815.649	20.99168
815.837	-28.15957
816.025	31.23152
816.213	-9.72785
816.401	37.37543
816.59	47.61527
816.778	33.27949
816.966	-60.92707
817.154	-28.15957
817.342	45.5673
817.53	-60.92707
817.718	74.23887
817.906	4.60793
818.094	25.08762
818.282	-5.63191
818.47	4.60793
818.658	33.27949
818.846	25.08762
819.034	-52.7352
819.222	8.70387
819.409	-52.7352
819.597	-30.20754
819.785	31.23152
819.973	-9.72785
820.161	-19.9677
820.349	-19.9677
820.536	-36.35145
820.724	4.60793
820.912	-3.58395
821.1	-24.06363
821.287	-7.67988
821.475	41.47137
821.663	-46.59129
821.85	-50.68723
822.038	-17.91973
822.226	-15.87176
822.413	-34.30348
822.601	-58.8791
822.789	20.99168
822.976	20.99168
823.164	-17.91973
823.351	-52.7352
823.539	14.84777
823.726	-19.9677
823.914	33.27949
824.101	23.03965
824.289	-13.82379
824.476	0.51199
824.664	8.70387
824.851	-19.9677
825.039	20.99168
825.226	-60.92707
825.413	25.08762
825.601	25.08762
825.788	-38.39941
825.976	-30.20754
826.163	84.47871
826.35	-5.63191
826.537	20.99168
826.725	8.70387
826.912	-1.53598
827.099	35.32746
827.286	14.84777
827.474	8.70387
827.661	-11.77582
827.848	-13.82379
828.035	8.70387
828.222	10.75184
828.409	18.94371
828.597	2.55996
828.784	-1.53598
828.971	-24.06363
829.158	-19.9677
829.345	-60.92707
829.532	-30.20754
829.719	4.60793
829.906	-36.35145
830.093	37.37543
830.28	-52.7352
830.467	-30.20754
830.654	-36.35145
830.841	-11.77582
831.028	37.37543
831.215	-3.58395
831.402	-52.7352
831.588	12.7998
831.775	33.27949
831.962	45.5673
832.149	25.08762
832.336	-17.91973
832.522	-73.21488
832.709	14.84777
832.896	37.37543
833.083	12.7998
833.269	-1.53598
833.456	-11.77582
833.643	12.7998
833.83	8.70387
834.016	-7.67988
834.203	-15.87176
834.39	-1.53598
834.576	-11.77582
834.763	53.75918
834.949	-56.83113
835.136	12.7998
835.322	-40.44738
835.509	47.61527
835.695	25.08762
835.882	51.71121
836.068	63.99902
836.255	20.99168
836.441	33.27949
836.628	-38.39941
836.814	-38.39941
837.001	6.6559
837.187	-5.63191
837.373	-3.58395
837.56	37.37543
837.746	4.60793
837.933	2.55996
838.119	0.51199
838.305	84.47871
838.491	-24.06363
838.678	10.75184
838.864	39.4234
839.05	2.55996
839.236	25.08762
839.423	4.60793
839.609	33.27949
839.795	4.60793
839.981	-26.1116
840.167	20.99168
840.353	27.13559
840.54	-3.58395
840.726	12.7998
840.912	25.08762
841.098	-44.54332
841.284	59.90309
841.47	43.51934
841.656	2.55996
841.842	-5.63191
842.028	-42.49535
842.214	35.32746
842.4	18.94371
842.586	12.7998
842.772	86.52668
842.958	20.99168
843.143	39.4234
843.329	63.99902
843.515	-19.9677
843.701	-3.58395
843.887	20.99168
844.073	-52.7352
844.258	23.03965
844.444	23.03965
844.63	12.7998
844.816	49.66324
845.001	2.55996
845.187	-30.20754
845.373	-22.01566
845.559	16.89574
845.744	33.27949
845.93	-3.58395
846.115	25.08762
846.301	-13.82379
846.487	41.47137
846.672	53.75918
846.858	-9.72785
847.043	-9.72785
847.229	-19.9677
847.414	-11.77582
847.6	-34.30348
847.785	8.70387
847.971	45.5673
848.156	-7.67988
848.342	20.99168
848.527	41.47137
848.713	37.37543
848.898	-9.72785
849.083	31.23152
849.269	51.71121
849.454	-65.02301
849.639	-26.1116
849.825	4.60793
850.01	-56.83113
850.195	-3.58395
850.381	10.75184
850.566	-54.78316
850.751	-19.9677
850.936	16.89574
851.122	-15.87176
851.307	16.89574
851.492	29.18355
851.677	41.47137
851.862	8.70387
852.047	29.18355
852.232	25.08762
852.417	-5.63191
852.603	-28.15957
852.788	20.99168
852.973	-44.54332
853.158	-28.15957
853.343	-28.15957
853.528	-46.59129
853.713	-65.02301
853.898	37.37543
854.083	8.70387
854.267	18.94371
854.452	8.70387
854.637	45.5673
854.822	29.18355
855.007	39.4234
855.192	82.43074
855.377	-30.20754
855.562	29.18355
855.746	-9.72785
855.931	-17.91973
856.116	49.66324
856.301	70.14293
856.485	-48.63926
856.67	72.1909
856.855	57.85512
857.039	-34.30348
857.224	41.47137
857.409	-11.77582
857.593	115.19824
857.778	33.27949
857.963	16.89574
858.147	59.90309
858.332	16.89574
858.516	-32.25551
858.701	-11.77582
858.885	8.70387
859.07	25.08762
859.254	-34.30348
859.439	4.60793
859.623	-11.77582
859.808	-69.11895
859.992	27.13559
860.177	27.13559
860.361	-1.53598
860.545	-5.63191
860.73	-32.25551
860.914	-42.49535
861.098	16.89574
861.283	-19.9677
861.467	29.18355
861.651	8.70387
861.836	14.84777
862.02	2.55996
862.204	-58.8791
862.388	-3.58395
862.572	47.61527
862.757	10.75184
862.941	0.51199
863.125	20.99168
863.309	8.70387
863.493	29.18355
863.677	-24.06363
863.861	25.08762
864.045	6.6559
864.23	80.38277
864.414	-65.02301
864.598	4.60793
864.782	39.4234
864.966	39.4234
865.15	-48.63926
865.334	27.13559
865.517	66.04699
865.701	-22.01566
865.885	-19.9677
866.069	-17.91973
866.253	-48.63926
866.437	6.6559
866.621	10.75184
866.805	20.99168
866.988	61.95105
867.172	18.94371
867.356	-32.25551
867.54	57.85512
867.723	-17.91973
867.907	45.5673
868.091	-11.77582
868.275	18.94371
868.458	33.27949
868.642	39.4234
868.826	-48.63926
869.009	-46.59129
869.193	59.90309
869.376	10.75184
869.56	-19.9677
869.744	-9.72785
869.927	43.51934
870.111	4.60793
870.294	-7.67988
870.478	74.23887
870.661	59.90309
870.845	-1.53598
871.028	37.37543
871.211	8.70387
871.395	-22.01566
871.578	-52.7352
871.762	23.03965
871.945	-34.30348
872.128	2.55996
872.312	-7.67988
872.495	-11.77582
872.678	-13.82379
872.862	6.6559
873.045	-3.58395
873.228	2.55996
873.411	84.47871
873.595	-24.06363
873.778	-5.63191
873.961	-28.15957
874.144	-46.59129
874.327	20.99168
874.51	43.51934
874.694	-44.54332
874.877	-67.07098
875.06	45.5673
875.243	0.51199
875.426	-36.35145
875.609	70.14293
875.792	-13.82379
875.975	16.89574
876.158	-3.58395
876.341	-13.82379
876.524	20.99168
876.707	-36.35145
876.89	23.03965
877.073	8.70387
877.255	-7.67988
877.438	2.55996
877.621	-15.87176
877.804	47.61527
877.987	-15.87176
878.17	23.03965
878.352	0.51199
878.535	-38.39941
878.718	16.89574
878.901	-42.49535
879.083	-32.25551
879.266	-34.30348
879.449	4.60793
879.631	27.13559
879.814	-15.87176
879.997	-83.45473
880.179	-5.63191
880.362	27.13559
880.545	20.99168
880.727	27.13559
880.91	27.13559
881.092	35.32746
881.275	33.27949
881.457	0.51199
881.64	0.51199
881.822	-44.54332
882.005	-40.44738
882.187	55.80715
882.37	6.6559
882.552	4.60793
882.734	-36.35145
882.917	-81.40676
883.099	55.80715
883.281	6.6559
883.464	-9.72785
883.646	-24.06363
883.828	-26.1116
884.011	0.51199
884.193	-15.87176
884.375	8.70387
884.557	27.13559
884.74	8.70387
884.922	-7.67988
885.104	-19.9677
885.286	0.51199
885.468	-17.91973
885.65	8.70387
885.832	23.03965
886.015	14.84777
886.197	20.99168
886.379	8.70387
886.561	10.75184
886.743	49.66324
886.925	-24.06363
887.107	8.70387
887.289	-7.67988
887.471	-7.67988
887.653	-50.68723
887.835	43.51934
888.016	-77.31082
888.198	6.6559
888.38	-83.45473
888.562	-24.06363
888.744	0.51199
888.926	-7.67988
889.108	2.55996
889.289	12.7998
889.471	-24.06363
889.653	-24.06363
889.835	88.57465
890.016	-48.63926
890.198	29.18355
890.38	45.5673
890.561	-13.82379
890.743	-5.63191
890.925	16.89574
891.106	-50.68723
891.288	-46.59129
891.469	-79.35879
891.651	-32.25551
891.833	-67.07098
892.014	47.61527
892.196	8.70387
892.377	51.71121
892.559	-26.1116
892.74	-5.63191
892.922	-48.63926
893.103	-56.83113
893.284	70.14293
893.466	-28.15957
893.647	45.5673
893.829	-69.11895
894.01	4.60793
894.191	6.6559
894.373	-50.68723
894.554	-17.91973
894.735	63.99902
894.916	-32.25551
895.098	39.4234
895.279	31.23152
895.46	16.89574
895.641	35.32746
895.823	2.55996
896.004	47.61527
896.185	29.18355
896.366	-9.72785
896.547	-13.82379
896.728	25.08762
896.909	55.80715
897.09	-11.77582
897.271	-30.20754
897.452	-15.87176
897.633	47.61527
897.814	-34.30348
897.995	43.51934
898.176	43.51934
898.357	-28.15957
898.538	39.4234
898.719	-46.59129
898.9	14.84777
899.081	-38.39941
899.262	37.37543
899.443	10.75184
899.623	-15.87176
899.804	27.13559
899.985	-22.01566
900.166	0.51199
900.347	-19.9677
900.527	4.60793
900.708	-3.58395
900.889	27.13559
901.07	29.18355
901.25	-1.53598
901.431	-34.30348
901.611	-24.06363
901.792	47.61527
901.973	55.80715
902.153	29.18355
902.334	12.7998
902.514	43.51934
902.695	-32.25551
902.876	-9.72785
903.056	10.75184
903.237	74.23887
903.417	84.47871
903.597	6.6559
903.778	18.94371
903.958	-7.67988
904.139	25.08762
904.319	-11.77582
904.499	-11.77582
904.68	-50.68723
904.86	29.18355
905.04	63.99902
905.221	10.75184
905.401	-3.58395
905.581	51.71121
905.762	-34.30348
905.942	20.99168
906.122	-9.72785
906.302	8.70387
906.482	37.37543
906.663	-1.53598
906.843	6.6559
907.023	-40.44738
907.203	-26.1116
907.383	-7.67988
907.563	25.08762
907.743	-15.87176
907.923	-22.01566
908.103	-7.67988
908.283	72.1909
908.463	70.14293
908.643	-28.15957
908.823	6.6559
909.003	-24.06363
909.183	29.18355
909.363	-32.25551
909.543	-62.97504
909.723	-1.53598
909.903	-7.67988
910.082	-52.7352
910.262	-3.58395
910.442	12.7998
910.622	43.51934
910.802	6.6559
910.981	-32.25551
911.161	-73.21488
911.341	-38.39941
911.521	-44.54332
911.7	25.08762
911.88	51.71121
912.06	94.71855
912.239	8.70387
912.419	-19.9677
912.598	-7.67988
912.778	-7.67988
912.958	29.18355
913.137	37.37543
913.317	6.6559
913.496	43.51934
913.676	43.51934
913.855	-5.63191
914.035	-58.8791
914.214	-26.1116
914.393	8.70387
914.573	47.61527
914.752	-38.39941
914.932	8.70387
915.111	-44.54332
915.29	8.70387
915.47	4.60793
915.649	-7.67988
915.828	25.08762
916.008	37.37543
916.187	-9.72785
916.366	37.37543
916.545	41.47137
916.724	25.08762
916.904	18.94371
917.083	-24.06363
917.262	-28.15957
917.441	-13.82379
917.62	-77.31082
917.799	4.60793
917.978	-19.9677
918.158	6.6559
918.337	2.55996
918.516	29.18355
918.695	-15.87176
918.874	-9.72785
919.053	16.89574
919.232	2.55996
919.41	-62.97504
919.589	-60.92707
919.768	-38.39941
919.947	45.5673
920.126	6.6559
920.305	-28.15957
920.484	39.4234
920.663	2.55996
920.841	-32.25551
921.02	14.84777
921.199	-54.78316
921.378	16.89574
921.556	74.23887
921.735	33.27949
921.914	-30.20754
922.093	-1.53598
922.271	12.7998
922.45	20.99168
922.629	-69.11895
922.807	4.60793
922.986	-15.87176
923.164	31.23152
923.343	39.4234
923.521	8.70387
923.7	14.84777
923.878	-32.25551
924.057	0.51199
924.235	-56.83113
924.414	2.55996
924.592	-24.06363
924.771	37.37543
924.949	37.37543
925.128	-28.15957
925.306	-15.87176
925.484	-5.63191
925.663	68.09496
925.841	-79.35879
926.019	-52.7352
926.198	63.99902
926.376	-48.63926
926.554	59.90309
926.732	59.90309
926.91	-13.82379
927.089	8.70387
927.267	12.7998
927.445	-15.87176
927.623	45.5673
927.801	-30.20754
927.979	-46.59129
928.158	0.51199
928.336	33.27949
928.514	20.99168
928.692	-22.01566
928.87	0.51199
929.048	41.47137
929.226	-1.53598
929.404	-112.12629
929.582	-26.1116
929.76	74.23887
929.937	-58.8791
930.115	53.75918
930.293	-7.67988
930.471	39.4234
930.649	4.60793
930.827	-7.67988
931.005	14.84777
931.182	-34.30348
931.36	14.84777
931.538	-24.06363
931.716	51.71121
931.893	47.61527
932.071	25.08762
932.249	53.75918
932.426	14.84777
932.604	53.75918
932.782	39.4234
932.959	57.85512
933.137	-11.77582
933.315	0.51199
933.492	-89.59863
933.67	18.94371
933.847	-9.72785
934.025	20.99168
934.202	-17.91973
934.38	57.85512
934.557	-7.67988
934.735	-30.20754
934.912	-11.77582
935.089	-28.15957
935.267	-13.82379
935.444	-28.15957
935.622	-44.54332
935.799	-54.78316
935.976	8.70387
936.154	63.99902
936.331	-9.72785
936.508	-38.39941
936.685	16.89574
936.863	0.51199
937.04	4.60793
937.217	45.5673
937.394	10.75184
937.571	18.94371
937.748	-30.20754
937.926	-48.63926
938.103	-22.01566
938.28	33.27949
938.457	4.60793
938.634	14.84777
938.811	-28.15957
938.988	23.03965
939.165	6.6559
939.342	25.08762
939.519	-7.67988
939.696	-30.20754
939.873	16.89574
940.05	-15.87176
940.227	16.89574
940.404	33.27949
940.58	-36.35145
940.757	2.55996
940.934	10.75184
941.111	12.7998
941.288	-11.77582
941.464	8.70387
941.641	-13.82379
941.818	-17.91973
941.995	-19.9677
942.171	70.14293
942.348	-15.87176
942.525	2.55996
942.701	2.55996
942.878	41.47137
943.055	-13.82379
943.231	29.18355
943.408	-30.20754
943.584	-13.82379
943.761	45.5673
943.937	-54.78316
944.114	33.27949
944.29	14.84777
944.467	-1.53598
944.643	31.23152
944.82	4.60793
944.996	-1.53598
945.173	20.99168
945.349	-19.9677
945.525	-32.25551
945.702	0.51199
945.878	-28.15957
946.054	37.37543
946.231	33.27949
946.407	6.6559
946.583	-3.58395
946.759	33.27949
946.936	-7.67988
947.112	-65.02301
947.288	-36.35145
947.464	-1.53598
947.64	-19.9677
947.816	37.37543
947.992	6.6559
948.169	16.89574
948.345	41.47137
948.521	-73.21488
948.697	14.84777
948.873	12.7998
949.049	35.32746
949.225	2.55996
949.401	31.23152
949.577	70.14293
949.753	-34.30348
949.929	-34.30348
950.104	-22.01566
950.28	-7.67988
950.456	-38.39941
950.632	-40.44738
950.808	113.15027
950.984	-7.67988
951.159	-56.83113
951.335	-32.25551
951.511	-36.35145
951.687	27.13559
951.862	-54.78316
952.038	31.23152
952.214	23.03965
952.39	-62.97504
952.565	63.99902
952.741	82.43074
952.916	20.99168
953.092	-26.1116
953.268	-48.63926
953.443	31.23152
953.619	-1.53598
953.794	37.37543
953.97	6.6559
954.145	-36.35145
954.321	47.61527
954.496	25.08762
954.672	-17.91973
954.847	-11.77582
955.022	16.89574
955.198	-32.25551
955.373	14.84777
955.548	23.03965
955.724	-3.58395
955.899	14.84777
956.074	27.13559
956.25	-1.53598
956.425	27.13559
956.6	-85.5027
956.775	39.4234
956.951	-54.78316
957.126	-62.97504
957.301	20.99168
957.476	68.09496
957.651	37.37543
957.826	-19.9677
958.001	8.70387
958.176	-15.87176
958.352	57.85512
958.527	12.7998
958.702	29.18355
958.877	6.6559
959.052	4.60793
959.227	41.47137
959.401	57.85512
959.576	-26.1116
959.751	-52.7352
959.926	39.4234
960.101	33.27949
960.276	92.67059
960.451	-30.20754
960.626	25.08762
960.8	0.51199
960.975	23.03965
961.15	-19.9677
961.325	12.7998
961.499	-28.15957
961.674	-22.01566
961.849	8.70387
962.023	27.13559
962.198	-13.82379
962.373	33.27949
962.547	-3.58395
962.722	-50.68723
962.897	0.51199
963.071	6.6559
963.246	-9.72785
963.42	-3.58395
963.595	-17.91973
963.769	43.51934
963.944	-22.01566
964.118	23.03965
964.293	31.23152
964.467	-24.06363
964.641	-11.77582
964.816	-69.11895
964.99	-58.8791
965.165	14.84777
965.339	55.80715
965.513	-79.35879
965.687	-24.06363
965.862	4.60793
966.036	-50.68723
966.21	49.66324
966.384	12.7998
966.559	29.18355
966.733	-22.01566
966.907	8.70387
967.081	16.89574
967.255	-40.44738
967.429	-28.15957
967.604	57.85512
967.778	6.6559
967.952	20.99168
968.126	10.75184
968.3	35.32746
968.474	-48.63926
968.648	72.1909
968.822	20.99168
968.996	55.80715
969.17	0.51199
969.343	-1.53598
969.517	37.37543
969.691	-36.35145
969.865	20.99168
970.039	-7.67988
970.213	10.75184
970.387	20.99168
970.56	-7.67988
970.734	20.99168
970.908	43.51934
971.082	25.08762
971.255	-44.54332
971.429	-15.87176
971.603	-1.53598
971.776	37.37543
971.95	-30.20754
972.124	39.4234
972.297	-17.91973
972.471	-52.7352
972.644	-65.02301
972.818	-50.68723
972.991	-28.15957
973.165	82.43074
973.338	-26.1116
973.512	-42.49535
973.685	-56.83113
973.859	16.89574
974.032	-69.11895
974.206	4.60793
974.379	20.99168
974.552	39.4234
974.726	-75.26285
974.899	12.7998
975.072	-101.88645
975.246	31.23152
975.419	0.51199
975.592	53.75918
975.765	16.89574
975.939	-17.91973
976.112	39.4234
976.285	43.51934
976.458	-19.9677
976.631	-32.25551
976.804	6.6559
976.977	-65.02301
977.151	45.5673
977.324	-52.7352
977.497	59.90309
977.67	33.27949
977.843	47.61527
978.016	35.32746
978.189	16.89574
978.362	14.84777
978.535	-30.20754
978.707	-7.67988
978.88	-24.06363
979.053	45.5673
979.226	-22.01566
979.399	53.75918
979.572	20.99168
979.745	-58.8791
979.917	20.99168
980.09	-13.82379
980.263	72.1909
980.436	0.51199
980.608	-5.63191
980.781	-13.82379
980.954	-7.67988
981.126	-44.54332
981.299	-34.30348
981.472	-48.63926
981.644	51.71121
981.817	68.09496
981.989	0.51199
982.162	43.51934
982.335	4.60793
982.507	-11.77582
982.68	-32.25551
982.852	-19.9677
983.024	-34.30348
983.197	-7.67988
983.369	16.89574
983.542	-17.91973
983.714	25.08762
983.886	-36.35145
984.059	27.13559
984.231	53.75918
984.403	-34.30348
984.576	18.94371
984.748	-11.77582
984.92	-32.25551
985.093	-34.30348
985.265	-32.25551
985.437	25.08762
985.609	18.94371
985.781	-28.15957
985.953	-7.67988
986.126	-40.44738
986.298	10.75184
986.47	12.7998
986.642	-19.9677
986.814	-44.54332
986.986	-60.92707
987.158	-9.72785
987.33	27.13559
987.502	-15.87176
987.674	23.03965
987.846	-30.20754
988.018	0.51199
988.19	-38.39941
988.361	-15.87176
988.533	39.4234
988.705	68.09496
988.877	-5.63191
989.049	-7.67988
989.221	18.94371
989.392	-13.82379
989.564	14.84777
989.736	0.51199
989.908	-36.35145
990.079	45.5673
990.251	-28.15957
990.423	-17.91973
990.594	-13.82379
990.766	-11.77582
990.937	12.7998
991.109	37.37543
991.281	53.75918
991.452	16.89574
991.624	-13.82379
991.795	-48.63926
991.967	61.95105
992.138	41.47137
992.31	-56.83113
992.481	12.7998
992.652	10.75184
992.824	-3.58395
992.995	18.94371
993.167	37.37543
993.338	6.6559
993.509	14.84777
993.681	25.08762
993.852	25.08762
994.023	27.13559
994.194	-7.67988
994.366	-28.15957
994.537	23.03965
994.708	-52.7352
994.879	117.24621
995.05	41.47137
995.221	-32.25551
995.393	-11.77582
995.564	51.71121
995.735	10.75184
995.906	23.03965
996.077	16.89574
996.248	14.84777
996.419	37.37543
996.59	-1.53598
996.761	14.84777
996.932	-28.15957
997.103	10.75184
997.274	23.03965
997.444	-19.9677
997.615	-13.82379
997.786	-24.06363
997.957	-24.06363
998.128	63.99902
998.299	14.84777
998.469	-7.67988
998.64	-9.72785
998.811	31.23152
998.982	-19.9677
999.152	20.99168
999.323	53.75918
999.494	35.32746
999.664	-15.87176
999.835	31.23152
1000.006	-46.59129
1000.176	-15.87176
1000.347	66.04699
1000.517	-69.11895
1000.688	-11.77582
1000.858	88.57465
1001.029	57.85512
1001.199	47.61527
1001.37	-38.39941
1001.54	-34.30348
1001.711	18.94371
1001.881	57.85512
1002.051	-7.67988
1002.222	76.28684
1002.392	-79.35879
1002.562	-44.54332
1002.733	23.03965
1002.903	-58.8791
1003.073	-11.77582
1003.244	35.32746
1003.414	-50.68723
1003.584	18.94371
1003.754	33.27949
1003.924	-60.92707
1004.094	66.04699
1004.265	41.47137
1004.435	-40.44738
1004.605	-22.01566
1004.775	37.37543
1004.945	35.32746
1005.115	70.14293
1005.285	-3.58395
1005.455	-34.30348
1005.625	4.60793
1005.795	35.32746
1005.965	16.89574
1006.135	39.4234
1006.305	74.23887
1006.475	-11.77582
1006.645	88.57465
1006.814	-1.53598
1006.984	33.27949
1007.154	14.84777
1007.324	-19.9677
1007.494	-1.53598
1007.663	12.7998
1007.833	6.6559
1008.003	10.75184
1008.172	23.03965
1008.342	74.23887
1008.512	-38.39941
1008.681	-1.53598
1008.851	-13.82379
1009.021	-69.11895
1009.19	49.66324
1009.36	41.47137
1009.529	-58.8791
1009.699	-9.72785
1009.868	20.99168
1010.038	-30.20754
1010.207	-5.63191
1010.377	39.4234
1010.546	-50.68723
1010.716	-50.68723
1010.885	57.85512
1011.054	23.03965
1011.224	49.66324
1011.393	-28.15957
1011.562	43.51934
1011.732	-11.77582
1011.901	8.70387
1012.07	-38.39941
1012.24	-9.72785
1012.409	-50.68723
1012.578	-60.92707
1012.747	31.23152
1012.916	-7.67988
1013.085	-3.58395
1013.255	-1.53598
1013.424	-34.30348
1013.593	-38.39941
1013.762	-24.06363
1013.931	-52.7352
1014.1	-22.01566
1014.269	-34.30348
1014.438	-62.97504
1014.607	-52.7352
1014.776	-17.91973
1014.945	59.90309
1015.114	-5.63191
1015.283	16.89574
1015.451	68.09496
1015.62	-46.59129
1015.789	29.18355
1015.958	10.75184
1016.127	-28.15957
1016.296	59.90309
1016.464	-24.06363
1016.633	-38.39941
1016.802	45.5673
1016.971	12.7998
1017.139	-32.25551
1017.308	76.28684
1017.477	55.80715
1017.645	53.75918
1017.814	-13.82379
1017.982	45.5673
1018.151	8.70387
1018.319	-7.67988
1018.488	-5.63191
1018.657	-36.35145
1018.825	-40.44738
1018.993	-1.53598
1019.162	37.37543
1019.33	10.75184
1019.499	8.70387
1019.667	45.5673
1019.836	-108.03035
1020.004	2.55996
1020.172	-19.9677
1020.341	41.47137
1020.509	2.55996
1020.677	-7.67988
1020.845	-22.01566
1021.014	-15.87176
1021.182	2.55996
1021.35	-11.77582
1021.518	-9.72785
1021.686	-17.91973
1021.855	-3.58395
1022.023	68.09496
1022.191	0.51199
1022.359	-26.1116
1022.527	57.85512
1022.695	33.27949
1022.863	-15.87176
1023.031	-19.9677
1023.199	61.95105
1023.367	-58.8791
1023.535	41.47137
1023.703	41.47137
1023.871	-34.30348
1024.039	4.60793
1024.207	43.51934
1024.375	2.55996
1024.542	16.89574
1024.71	-13.82379
1024.878	10.75184
1025.046	-24.06363
1025.213	23.03965
1025.381	4.60793
1025.549	-5.63191
1025.717	-38.39941
1025.884	-91.6466
1026.052	16.89574
1026.22	-42.49535
1026.387	8.70387
1026.555	-19.9677
1026.722	39.4234
1026.89	8.70387
1027.058	-3.58395
1027.225	47.61527
1027.393	-13.82379
1027.56	-32.25551
1027.728	-56.83113
1027.895	25.08762
1028.062	-24.06363
1028.23	8.70387
1028.397	6.6559
1028.565	-40.44738
1028.732	-28.15957
1028.899	39.4234
1029.067	-48.63926
1029.234	12.7998
1029.401	-13.82379
1029.568	-24.06363
1029.736	4.60793
1029.903	102.91043
1030.07	8.70387
1030.237	31.23152
1030.404	-22.01566
1030.572	8.70387
1030.739	-40.44738
1030.906	-13.82379
1031.073	-3.58395
1031.24	27.13559
1031.407	33.27949
1031.574	16.89574
1031.741	-38.39941
1031.908	-17.91973
1032.075	-17.91973
1032.242	10.75184
1032.409	29.18355
1032.576	-48.63926
1032.743	59.90309
1032.91	31.23152
1033.076	2.55996
1033.243	0.51199
1033.41	57.85512
1033.577	-13.82379
1033.744	-1.53598
1033.91	25.08762
1034.077	-65.02301
1034.244	-30.20754
1034.41	0.51199
1034.577	4.60793
1034.744	35.32746
1034.91	27.13559
1035.077	-36.35145
1035.244	-81.40676
1035.41	-77.31082
1035.577	-24.06363
1035.743	-19.9677
1035.91	-46.59129
1036.076	8.70387
1036.243	29.18355
1036.409	-22.01566
1036.576	82.43074
1036.742	33.27949
1036.908	-26.1116
1037.075	16.89574
1037.241	-52.7352
1037.408	29.18355
1037.574	0.51199
1037.74	41.47137
1037.906	68.09496
1038.073	39.4234
1038.239	27.13559
1038.405	33.27949
1038.571	-34.30348
1038.738	39.4234
1038.904	-1.53598
1039.07	-30.20754
1039.236	-34.30348
1039.402	31.23152
1039.568	-9.72785
1039.734	-52.7352
1039.9	-13.82379
1040.066	-1.53598
1040.232	45.5673
1040.398	51.71121
1040.564	-11.77582
1040.73	20.99168
1040.896	-7.67988
1041.062	-36.35145
1041.228	-34.30348
1041.394	-34.30348
1041.56	-11.77582
1041.725	-5.63191
1041.891	31.23152
1042.057	-15.87176
1042.223	12.7998
1042.389	-9.72785
1042.554	-17.91973
1042.72	8.70387
1042.886	-5.63191
1043.051	49.66324
1043.217	-1.53598
1043.383	-44.54332
1043.548	-7.67988
1043.714	39.4234
1043.879	-73.21488
1044.045	47.61527
1044.21	-46.59129
1044.376	-24.06363
1044.541	-56.83113
1044.707	18.94371
1044.872	-34.30348
1045.038	-38.39941
1045.203	-22.01566
1045.369	-56.83113
1045.534	27.13559
1045.699	-5.63191
1045.865	10.75184
1046.03	-81.40676
1046.195	14.84777
1046.361	-13.82379
1046.526	-65.02301
1046.691	94.71855
1046.856	10.75184
1047.021	0.51199
1047.187	33.27949
1047.352	-15.87176
1047.517	10.75184
1047.682	25.08762
1047.847	16.89574
1048.012	-13.82379
1048.177	-108.03035
1048.342	10.75184
1048.507	39.4234
1048.672	-15.87176
1048.837	-5.63191
1049.002	78.3348
1049.167	8.70387
1049.332	-30.20754
1049.497	0.51199
1049.662	70.14293
1049.827	25.08762
1049.992	57.85512
1050.156	0.51199
1050.321	43.51934
1050.486	-30.20754
1050.651	-26.1116
1050.816	29.18355
1050.98	-19.9677
1051.145	-22.01566
1051.31	14.84777
1051.474	-13.82379
1051.639	41.47137
1051.804	43.51934
1051.968	61.95105
1052.133	20.99168
1052.297	-71.16691
1052.462	-65.02301
1052.626	-1.53598
1052.791	2.55996
1052.955	-17.91973
1053.12	-24.06363
1053.284	-50.68723
1053.449	10.75184
1053.613	4.60793
1053.777	33.27949
1053.942	-15.87176
1054.106	23.03965
1054.27	-7.67988
1054.435	20.99168
1054.599	-36.35145
1054.763	18.94371
1054.928	55.80715
1055.092	0.51199
1055.256	43.51934
1055.42	2.55996
1055.584	43.51934
1055.748	20.99168
1055.913	-34.30348
1056.077	0.51199
1056.241	16.89574
1056.405	74.23887
1056.569	-11.77582
1056.733	-15.87176
1056.897	4.60793
1057.061	66.04699
1057.225	4.60793
1057.389	-40.44738
1057.553	27.13559
1057.717	-1.53598
1057.88	-5.63191
1058.044	-44.54332
1058.208	-3.58395
1058.372	-9.72785
1058.536	25.08762
1058.7	-58.8791
1058.863	18.94371
1059.027	55.80715
1059.191	-3.58395
1059.355	-48.63926
1059.518	-11.77582
1059.682	-24.06363
1059.846	-32.25551
1060.009	-17.91973
1060.173	-19.9677
1060.336	-28.15957
1060.5	-48.63926
1060.663	76.28684
1060.827	-50.68723
1060.99	16.89574
1061.154	-52.7352
1061.317	61.95105
1061.481	20.99168
1061.644	-7.67988
1061.808	37.37543
1061.971	57.85512
1062.134	37.37543
1062.298	-48.63926
1062.461	41.47137
1062.624	-34.30348
1062.788	-3.58395
1062.951	8.70387
1063.114	0.51199
1063.277	33.27949
1063.441	-15.87176
1063.604	-42.49535
1063.767	-13.82379
1063.93	51.71121
1064.093	-11.77582
1064.256	23.03965
1064.419	-1.53598
1064.582	23.03965
1064.745	-56.83113
1064.908	-48.63926
1065.071	59.90309
1065.234	-32.25551
1065.397	-11.77582
1065.56	-52.7352
1065.723	49.66324
1065.886	2.55996
1066.049	-19.9677
1066.212	-48.63926
1066.375	-26.1116
1066.537	25.08762
1066.7	37.37543
1066.863	-28.15957
1067.026	-7.67988
1067.189	-13.82379
1067.351	4.60793
1067.514	-79.35879
1067.677	-24.06363
1067.839	-48.63926
1068.002	16.89574
1068.165	-19.9677
1068.327	4.60793
1068.49	-9.72785
1068.652	68.09496
1068.815	59.90309
1068.977	43.51934
1069.14	2.55996
1069.302	25.08762
1069.465	10.75184
1069.627	-9.72785
1069.79	-17.91973
1069.952	-9.72785
1070.114	90.62262
1070.277	12.7998
1070.439	-32.25551
1070.601	-7.67988
1070.764	-116.22223
1070.926	-7.67988
1071.088	23.03965
1071.25	29.18355
1071.413	12.7998
1071.575	43.51934
1071.737	35.32746
1071.899	35.32746
1072.061	33.27949
1072.223	37.37543
1072.385	-24.06363
1072.547	51.71121
1072.71	-11.77582
1072.872	20.99168
1073.034	-7.67988
1073.196	-17.91973
1073.358	0.51199
1073.519	59.90309
1073.681	90.62262
1073.843	-5.63191
1074.005	45.5673
1074.167	-71.16691
1074.329	6.6559
1074.491	37.37543
1074.652	-1.53598
1074.814	-36.35145
1074.976	-34.30348
1075.138	18.94371
1075.299	-34.30348
1075.461	-60.92707
1075.623	-60.92707
1075.785	-15.87176
1075.946	29.18355
1076.108	45.5673
1076.269	2.55996
1076.431	4.60793
1076.593	-54.78316
1076.754	39.4234
1076.916	18.94371
1077.077	16.89574
1077.239	-24.06363
1077.4	-11.77582
1077.561	23.03965
1077.723	25.08762
1077.884	6.6559
1078.046	53.75918
1078.207	20.99168
1078.368	49.66324
1078.53	-22.01566
1078.691	27.13559
1078.852	14.84777
1079.013	-54.78316
1079.175	-32.25551
1079.336	-7.67988
1079.497	-13.82379
1079.658	23.03965
1079.819	-11.77582
1079.981	20.99168
1080.142	-34.30348
1080.303	-15.87176
1080.464	39.4234
1080.625	14.84777
1080.786	-60.92707
1080.947	-42.49535
1081.108	-7.67988
1081.269	57.85512
1081.43	47.61527
1081.591	-44.54332
1081.752	-52.7352
1081.912	12.7998
1082.073	-46.59129
1082.234	-60.92707
1082.395	18.94371
1082.556	-1.53598
1082.717	-24.06363
1082.877	66.04699
1083.038	-11.77582
1083.199	18.94371
1083.359	-3.58395
1083.52	41.47137
1083.681	41.47137
1083.841	16.89574
1084.002	-34.30348
1084.163	39.4234
1084.323	-11.77582
1084.484	-19.9677
1084.644	49.66324
1084.805	-83.45473
1084.965	-22.01566
1085.126	16.89574
1085.286	10.75184
1085.447	-9.72785
1085.607	-7.67988
1085.767	-62.97504
1085.928	18.94371
1086.088	55.80715
1086.249	-19.9677
1086.409	45.5673
1086.569	18.94371
1086.729	-38.39941
1086.89	-50.68723
1087.05	18.94371
1087.21	-7.67988
1087.37	61.95105
1087.53	29.18355
1087.691	33.27949
1087.851	2.55996
1088.011	45.5673
1088.171	-3.58395
1088.331	43.51934
1088.491	-17.91973
1088.651	27.13559
1088.811	6.6559
1088.971	-38.39941
1089.131	-42.49535
1089.291	31.23152
1089.451	10.75184
1089.611	-1.53598
1089.771	-44.54332
1089.93	29.18355
1090.09	-9.72785
1090.25	4.60793
1090.41	-62.97504
1090.57	53.75918
1090.729	74.23887
1090.889	-38.39941
1091.049	-75.26285
1091.208	33.27949
1091.368	-58.8791
1091.528	-11.77582
1091.687	23.03965
1091.847	-9.72785
1092.007	-5.63191
1092.166	29.18355
1092.326	27.13559
1092.485	2.55996
1092.645	23.03965
1092.804	-7.67988
1092.964	43.51934
1093.123	33.27949
1093.282	23.03965
1093.442	-9.72785
1093.601	6.6559
1093.761	16.89574
1093.92	-40.44738
1094.079	-5.63191
1094.239	29.18355
1094.398	-3.58395
1094.557	70.14293
1094.716	14.84777
1094.876	2.55996
1095.035	29.18355
1095.194	2.55996
1095.353	57.85512
1095.512	-1.53598
1095.671	4.60793
1095.83	49.66324
1095.989	86.52668
1096.148	16.89574
1096.307	6.6559
1096.466	-48.63926
1096.625	-44.54332
1096.784	12.7998
1096.943	-1.53598
1097.102	-5.63191
1097.261	4.60793
1097.42	-56.83113
1097.579	31.23152
1097.738	6.6559
1097.897	39.4234
1098.055	-26.1116
1098.214	6.6559
1098.373	-15.87176
1098.532	-26.1116
1098.69	-11.77582
1098.849	119.29418
1099.008	-11.77582
1099.166	-87.55066
1099.325	-19.9677
1099.484	-46.59129
1099.642	-9.72785
1099.801	-26.1116
1099.959	-7.67988
1100.118	37.37543
1100.276	-54.78316
1100.435	18.94371
1100.593	-22.01566
1100.752	-50.68723
1100.91	6.6559
1101.068	41.47137
1101.227	45.5673
1101.385	4.60793
1101.544	-19.9677
1101.702	74.23887
1101.86	47.61527
1102.018	94.71855
1102.177	-9.72785
1102.335	45.5673
1102.493	33.27949
1102.651	20.99168
1102.809	18.94371
1102.968	6.6559
1103.126	23.03965
1103.284	27.13559
1103.442	-24.06363
1103.6	-32.25551
1103.758	-48.63926
1103.916	-28.15957
1104.074	53.75918
1104.232	-24.06363
1104.39	16.89574
1104.548	59.90309
1104.706	-9.72785
1104.864	66.04699
1105.022	6.6559
1105.179	41.47137
1105.337	45.5673
1105.495	51.71121
1105.653	18.94371
1105.811	-36.35145
1105.968	8.70387
1106.126	33.27949
1106.284	41.47137
1106.441	92.67059
1106.599	33.27949
1106.757	-28.15957
1106.914	25.08762
1107.072	-26.1116
1107.23	-40.44738
1107.387	-7.67988
1107.545	8.70387
1107.702	14.84777
1107.86	-50.68723
1108.017	61.95105
1108.175	-1.53598
1108.332	82.43074
1108.489	39.4234
1108.647	8.70387
1108.804	23.03965
1108.962	-1.53598
1109.119	-38.39941
1109.276	2.55996
1109.433	20.99168
1109.591	-7.67988
1109.748	57.85512
1109.905	10.75184
1110.062	10.75184
1110.22	55.80715
1110.377	-19.9677
1110.534	0.51199
1110.691	8.70387
1110.848	-30.20754
1111.005	53.75918
1111.162	2.55996
1111.319	-46.59129
1111.476	45.5673
1111.633	0.51199
1111.79	57.85512
1111.947	4.60793
1112.104	39.4234
1112.261	-5.63191
1112.418	29.18355
1112.575	-19.9677
1112.732	-44.54332
1112.888	-7.67988
1113.045	14.84777
1113.202	29.18355
1113.359	41.47137
1113.515	-7.67988
1113.672	123.39012
1113.829	23.03965
1113.985	23.03965
1114.142	45.5673
1114.299	-5.63191
1114.455	-17.91973
1114.612	2.55996
1114.769	8.70387
1114.925	39.4234
1115.082	-28.15957
1115.238	8.70387
1115.395	-44.54332
1115.551	-38.39941
1115.707	8.70387
1115.864	-9.72785
1116.02	53.75918
1116.177	43.51934
1116.333	-34.30348
1116.489	47.61527
1116.646	18.94371
1116.802	35.32746
1116.958	-52.7352
1117.114	43.51934
1117.271	41.47137
1117.427	49.66324
1117.583	-19.9677
1117.739	57.85512
1117.895	20.99168
1118.051	10.75184
1118.208	37.37543
1118.364	20.99168
1118.52	-13.82379
1118.676	37.37543
1118.832	39.4234
1118.988	86.52668
1119.144	31.23152
1119.3	2.55996
1119.456	-15.87176
1119.611	12.7998
1119.767	-7.67988
1119.923	-52.7352
1120.079	-17.91973
1120.235	-15.87176
1120.391	27.13559
1120.546	0.51199
1120.702	20.99168
1120.858	-58.8791
1121.014	29.18355
1121.169	72.1909
1121.325	23.03965
1121.481	10.75184
1121.636	10.75184
1121.792	72.1909
1121.947	43.51934
1122.103	27.13559
1122.259	-3.58395
1122.414	27.13559
1122.57	-19.9677
1122.725	-17.91973
1122.881	-34.30348
1123.036	-13.82379
1123.191	18.94371
1123.347	-3.58395
1123.502	12.7998
1123.657	29.18355
1123.813	-34.30348
1123.968	8.70387
1124.123	-3.58395
1124.279	-69.11895
1124.434	68.09496
1124.589	2.55996
1124.744	2.55996
1124.9	57.85512
1125.055	-36.35145
1125.21	-13.82379
1125.365	-9.72785
1125.52	-17.91973
1125.675	33.27949
1125.83	-7.67988
1125.985	-83.45473
1126.14	-28.15957
1126.295	31.23152
1126.45	20.99168
1126.605	25.08762
