Data from uniphase1507p_3_SR6010521__0__10-35-11-970.txt Node

Date: Thu Jun 18 10:35:11 CEST 2026
User: FIDOPA_3
Spectrometer: SR601052
Trigger mode: 0
Integration Time (sec): 1.000000E-1
Scans to average: 1
Nonlinearity correction enabled: true
Boxcar width: 0
Storing dark spectrum: false
XAxis mode: Wavelengths
Number of Pixels in Spectrum: 2048
>>>>>Begin Spectral Data<<<<<
350.236	1173.58401
350.626	1157.49556
351.016	1171.69068
351.406	1168.85098
351.797	1178.31798
352.187	1168.85098
352.577	1175.47748
352.967	1179.26489
353.357	1179.26489
353.747	1188.73603
354.137	1187.78875
354.527	1183.05289
354.917	1174.53073
355.307	1175.47748
355.696	1180.21183
356.086	1176.42428
356.476	1199.15864
356.865	1182.10584
357.255	1170.74408
357.645	1194.42053
358.034	1189.68335
358.424	1202.00195
358.813	1192.52555
359.202	1178.31798
359.592	1184.94712
359.981	1192.52555
360.37	1183.99999
360.76	1174.53073
361.149	1194.42053
361.538	1180.21183
361.927	1318.86593
362.316	1193.47302
362.705	1183.05289
363.094	1222.86323
363.483	1202.9498
363.872	1210.53392
364.261	1190.63071
364.65	1196.31566
365.039	1200.10637
365.427	1189.68335
365.816	1179.26489
366.205	1186.8415
366.593	1192.52555
366.982	1177.37111
367.37	1193.47302
367.759	1202.00195
368.147	1197.26328
368.536	1182.10584
368.924	1190.63071
369.312	1198.21094
369.701	1182.10584
370.089	1199.15864
370.477	1184.94712
370.865	1191.57811
371.253	1191.57811
371.641	1202.9498
372.029	1189.68335
372.417	1180.21183
372.805	1197.26328
373.193	1194.42053
373.581	1186.8415
373.969	1208.63767
374.356	1205.79357
374.744	1172.63733
375.132	1196.31566
375.519	1276.04596
375.907	1191.57811
376.295	1203.89768
376.682	1219.06893
377.07	1194.42053
377.457	1213.37859
377.844	1198.21094
378.232	1203.89768
378.619	1207.6896
379.006	1184.94712
379.393	1180.21183
379.781	1181.15881
380.168	1182.10584
380.555	1202.00195
380.942	1200.10637
381.329	1186.8415
381.716	1187.78875
382.103	1184.94712
382.49	1200.10637
382.876	1187.78875
383.263	1191.57811
383.65	1218.12044
384.037	1196.31566
384.423	1194.42053
384.81	1167.90448
385.197	1177.37111
385.583	1196.31566
385.97	1205.79357
386.356	1190.63071
386.742	1203.89768
387.129	1184.94712
387.515	1212.43033
387.901	1192.52555
388.288	1201.05414
388.674	1187.78875
389.06	1203.89768
389.446	1196.31566
389.832	1198.21094
390.218	1223.8119
390.604	1204.84561
390.99	1198.21094
391.376	1192.52555
391.762	1208.63767
392.148	1202.9498
392.533	1216.22359
392.919	1196.31566
393.305	1181.15881
393.69	1188.73603
394.076	1187.78875
394.461	1187.78875
394.847	1185.89429
395.232	1197.26328
395.618	1201.05414
396.003	1210.53392
396.389	1197.26328
396.774	1178.31798
397.159	1192.52555
397.544	1184.94712
397.929	1207.6896
398.315	1195.36807
398.7	1193.47302
399.085	1186.8415
399.47	1202.00195
399.855	1205.79357
400.239	1198.21094
400.624	1196.31566
401.009	1186.8415
401.394	1196.31566
401.779	1202.00195
402.163	1225.70935
402.548	1201.05414
402.933	1193.47302
403.317	1214.32689
403.702	1195.36807
404.086	1188.73603
404.471	1192.52555
404.855	1176.42428
405.239	1210.53392
405.624	1195.36807
406.008	1210.53392
406.392	1202.00195
406.776	1184.94712
407.16	1173.58401
407.544	1201.05414
407.928	1215.27522
408.312	1219.06893
408.696	1195.36807
409.08	1199.15864
409.464	1195.36807
409.848	1187.78875
410.232	1200.10637
410.616	1201.05414
410.999	1207.6896
411.383	1193.47302
411.766	1201.05414
412.15	1193.47302
412.534	1186.8415
412.917	1217.172
413.3	1195.36807
413.684	1206.74156
414.067	1198.21094
414.451	1204.84561
414.834	1186.8415
415.217	1175.47748
415.6	1196.31566
415.983	1199.15864
416.366	1206.74156
416.749	1215.27522
417.132	1206.74156
417.515	1183.05289
417.898	1180.21183
418.281	1230.45363
418.664	1204.84561
419.047	1183.99999
419.43	1204.84561
419.812	1176.42428
420.195	1188.73603
420.577	1193.47302
420.96	1202.9498
421.343	1202.9498
421.725	1185.89429
422.107	1187.78875
422.49	1183.05289
422.872	1205.79357
423.254	1183.99999
423.637	1199.15864
424.019	1181.15881
424.401	1205.79357
424.783	1203.89768
425.165	1200.10637
425.547	1195.36807
425.929	1194.42053
426.311	1190.63071
426.693	1207.6896
427.075	1168.85098
427.457	1196.31566
427.839	1197.26328
428.22	1193.47302
428.602	1216.22359
428.984	1184.94712
429.365	1195.36807
429.747	1218.12044
430.128	1200.10637
430.51	1198.21094
430.891	1200.10637
431.273	1194.42053
431.654	1193.47302
432.035	1196.31566
432.417	1208.63767
432.798	1189.68335
433.179	1204.84561
433.56	1204.84561
433.941	1203.89768
434.322	1188.73603
434.703	1189.68335
435.084	1194.42053
435.465	1204.84561
435.846	1201.05414
436.227	1195.36807
436.608	1192.52555
436.988	1193.47302
437.369	1216.22359
437.75	1180.21183
438.13	1187.78875
438.511	1195.36807
438.891	1183.99999
439.272	1188.73603
439.652	1201.05414
440.032	1219.06893
440.413	1194.42053
440.793	1203.89768
441.173	1183.05289
441.554	1204.84561
441.934	1202.00195
442.314	1190.63071
442.694	1187.78875
443.074	1209.58578
443.454	1215.27522
443.834	1192.52555
444.214	1198.21094
444.593	1219.06893
444.973	1187.78875
445.353	1202.9498
445.733	1209.58578
446.112	1199.15864
446.492	1195.36807
446.872	1202.9498
447.251	1203.89768
447.631	1203.89768
448.01	1214.32689
448.389	1194.42053
448.769	1203.89768
449.148	1202.9498
449.527	1220.01745
449.907	1196.31566
450.286	1219.06893
450.665	1217.172
451.044	1184.94712
451.423	1201.05414
451.802	1205.79357
452.181	1204.84561
452.56	1220.01745
452.939	1182.10584
453.318	1207.6896
453.696	1202.9498
454.075	1173.58401
454.454	1214.32689
454.832	1196.31566
455.211	1206.74156
455.59	1238.99568
455.968	1213.37859
456.347	1210.53392
456.725	1197.26328
457.103	1191.57811
457.482	1187.78875
457.86	1195.36807
458.238	1199.15864
458.617	1198.21094
458.995	1203.89768
459.373	1202.00195
459.751	1199.15864
460.129	1208.63767
460.507	1219.06893
460.885	1246.59115
461.263	1205.79357
461.64	1202.00195
462.018	1206.74156
462.396	1216.22359
462.774	1194.42053
463.151	1212.43033
463.529	1181.15881
463.907	1183.99999
464.284	1185.89429
464.662	1187.78875
465.039	1189.68335
465.416	1204.84561
465.794	1216.22359
466.171	1189.68335
466.548	1206.74156
466.926	1192.52555
467.303	1196.31566
467.68	1198.21094
468.057	1206.74156
468.434	1189.68335
468.811	1223.8119
469.188	1210.53392
469.565	1189.68335
469.942	1192.52555
470.319	1211.48211
470.695	1220.01745
471.072	1194.42053
471.449	1194.42053
471.825	1188.73603
472.202	1201.05414
472.578	1186.8415
472.955	1251.33952
473.331	1195.36807
473.708	1195.36807
474.084	1198.21094
474.46	1190.63071
474.837	1207.6896
475.213	1193.47302
475.589	1191.57811
475.965	1214.32689
476.341	1192.52555
476.717	1188.73603
477.093	1210.53392
477.469	1182.10584
477.845	1206.74156
478.221	1192.52555
478.597	1183.99999
478.973	1211.48211
479.349	1195.36807
479.724	1202.00195
480.1	1206.74156
480.475	1238.04642
480.851	1200.10637
481.227	1187.78875
481.602	1197.26328
481.977	1200.10637
482.353	1218.12044
482.728	1204.84561
483.103	1212.43033
483.479	1201.05414
483.854	1221.9146
484.229	1204.84561
484.604	1188.73603
484.979	1181.15881
485.354	1175.47748
485.729	1180.21183
486.104	1188.73603
486.479	1189.68335
486.854	1223.8119
487.228	1198.21094
487.603	1179.26489
487.978	1193.47302
488.353	1186.8415
488.727	1204.84561
489.102	1186.8415
489.476	1202.00195
489.851	1212.43033
490.225	1215.27522
490.599	1188.73603
490.974	1194.42053
491.348	1193.47302
491.722	1195.36807
492.096	1188.73603
492.471	1198.21094
492.845	1209.58578
493.219	1215.27522
493.593	1197.26328
493.967	1199.15864
494.341	1202.9498
494.715	1204.84561
495.088	1193.47302
495.462	1196.31566
495.836	1195.36807
496.21	1202.00195
496.583	1202.9498
496.957	1217.172
497.33	1201.05414
497.704	1204.84561
498.077	1209.58578
498.451	1188.73603
498.824	1202.00195
499.197	1201.05414
499.571	1207.6896
499.944	1209.58578
500.317	1238.04642
500.69	1212.43033
501.063	1214.32689
501.436	1184.94712
501.809	1216.22359
502.182	1203.89768
502.555	1205.79357
502.928	1202.00195
503.301	1185.89429
503.674	1205.79357
504.046	1238.04642
504.419	1202.00195
504.792	1219.06893
505.164	1181.15881
505.537	1201.05414
505.909	1212.43033
506.282	1192.52555
506.654	1189.68335
507.027	1197.26328
507.399	1205.79357
507.771	1223.8119
508.143	1201.05414
508.516	1190.63071
508.888	1212.43033
509.26	1243.74257
509.632	1200.10637
510.004	1187.78875
510.376	1197.26328
510.748	1202.9498
511.12	1183.99999
511.491	1215.27522
511.863	1209.58578
512.235	1199.15864
512.607	1220.96601
512.978	1201.05414
513.35	1196.31566
513.721	1202.9498
514.093	1204.84561
514.464	1193.47302
514.836	1202.9498
515.207	1202.9498
515.578	1202.00195
515.95	1210.53392
516.321	1208.63767
516.692	1208.63767
517.063	1209.58578
517.434	1202.9498
517.805	1220.96601
518.176	1201.05414
518.547	1191.57811
518.918	1197.26328
519.289	1196.31566
519.66	1205.79357
520.03	1195.36807
520.401	1206.74156
520.772	1203.89768
521.142	1214.32689
521.513	1214.32689
521.883	1228.55581
522.254	1210.53392
522.624	1201.05414
522.995	1220.01745
523.365	1199.15864
523.735	1219.06893
524.105	1221.9146
524.476	1212.43033
524.846	1199.15864
525.216	1204.84561
525.586	1209.58578
525.956	1207.6896
526.326	1223.8119
526.696	1230.45363
527.066	1217.172
527.435	1191.57811
527.805	1201.05414
528.175	1212.43033
528.545	1223.8119
528.914	1238.04642
529.284	1215.27522
529.653	1190.63071
530.023	1217.172
530.392	1190.63071
530.762	1208.63767
531.131	1205.79357
531.5	1210.53392
531.87	1215.27522
532.239	1222.86323
532.608	1212.43033
532.977	1188.73603
533.346	1186.8415
533.715	1210.53392
534.084	1209.58578
534.453	1216.22359
534.822	1212.43033
535.191	1196.31566
535.56	1189.68335
535.929	1229.5047
536.297	1202.00195
536.666	1224.76061
537.034	1218.12044
537.403	1193.47302
537.772	1210.53392
538.14	1215.27522
538.508	1215.27522
538.877	1224.76061
539.245	1199.15864
539.613	1206.74156
539.982	1215.27522
540.35	1219.06893
540.718	1193.47302
541.086	1190.63071
541.454	1196.31566
541.822	1197.26328
542.19	1227.60695
542.558	1196.31566
542.926	1201.05414
543.294	1217.172
543.661	1186.8415
544.029	1202.00195
544.397	1188.73603
544.764	1207.6896
545.132	1194.42053
545.5	1208.63767
545.867	1234.24973
546.234	1215.27522
546.602	1187.78875
546.969	1202.9498
547.336	1227.60695
547.704	1200.10637
548.071	1204.84561
548.438	1190.63071
548.805	1206.74156
549.172	1197.26328
549.539	1197.26328
549.906	1204.84561
550.273	1192.52555
550.64	1191.57811
551.007	1206.74156
551.374	1202.9498
551.74	1213.37859
552.107	1203.89768
552.474	1213.37859
552.84	1208.63767
553.207	1202.9498
553.573	1205.79357
553.94	1213.37859
554.306	1198.21094
554.672	1211.48211
555.039	1205.79357
555.405	1197.26328
555.771	1198.21094
556.137	1215.27522
556.503	1197.26328
556.87	1201.05414
557.236	1227.60695
557.602	1203.89768
557.967	1223.8119
558.333	1220.01745
558.699	1206.74156
559.065	1228.55581
559.431	1211.48211
559.796	1194.42053
560.162	1199.15864
560.528	1216.22359
560.893	1202.00195
561.259	1217.172
561.624	1209.58578
561.99	1200.10637
562.355	1190.63071
562.72	1220.96601
563.085	1214.32689
563.451	1207.6896
563.816	1232.35161
564.181	1201.05414
564.546	1216.22359
564.911	1210.53392
565.276	1191.57811
565.641	1197.26328
566.006	1202.00195
566.371	1200.10637
566.735	1226.65814
567.1	1211.48211
567.465	1213.37859
567.83	1216.22359
568.194	1239.94499
568.559	1219.06893
568.923	1210.53392
569.288	1187.78875
569.652	1196.31566
570.016	1203.89768
570.381	1202.9498
570.745	1215.27522
571.109	1220.01745
571.473	1189.68335
571.837	1214.32689
572.202	1206.74156
572.566	1207.6896
572.93	1211.48211
573.293	1200.10637
573.657	1204.84561
574.021	1205.79357
574.385	1212.43033
574.749	1209.58578
575.112	1206.74156
575.476	1219.06893
575.84	1236.148
576.203	1230.45363
576.567	1216.22359
576.93	1218.12044
577.294	1220.96601
577.657	1211.48211
578.02	1212.43033
578.383	1216.22359
578.747	1227.60695
579.11	1208.63767
579.473	1203.89768
579.836	1221.9146
580.199	1226.65814
580.562	1236.148
580.925	1220.01745
581.288	1223.8119
581.651	1231.4026
582.013	1221.9146
582.376	1193.47302
582.739	1206.74156
583.101	1225.70935
583.464	1240.89433
583.827	1210.53392
584.189	1193.47302
584.551	1209.58578
584.914	1209.58578
585.276	1226.65814
585.639	1217.172
586.001	1220.01745
586.363	1227.60695
586.725	1205.79357
587.087	1205.79357
587.449	1228.55581
587.811	1224.76061
588.173	1200.10637
588.535	1264.63988
588.897	1210.53392
589.259	1215.27522
589.621	1203.89768
589.982	1205.79357
590.344	1204.84561
590.706	1201.05414
591.067	1225.70935
591.429	1218.12044
591.79	1216.22359
592.152	1222.86323
592.513	1213.37859
592.874	1237.09719
593.236	1257.98879
593.597	1215.27522
593.958	1220.01745
594.319	1206.74156
594.68	1215.27522
595.041	1217.172
595.402	1223.8119
595.763	1218.12044
596.124	1220.01745
596.485	1220.01745
596.846	1206.74156
597.207	1210.53392
597.567	1237.09719
597.928	1205.79357
598.288	1221.9146
598.649	1226.65814
599.01	1202.9498
599.37	1233.30065
599.73	1204.84561
600.091	1213.37859
600.451	1213.37859
600.811	1244.69206
601.172	1190.63071
601.532	1243.74257
601.892	1216.22359
602.252	1209.58578
602.612	1202.9498
602.972	1212.43033
603.332	1221.9146
603.692	1201.05414
604.052	1216.22359
604.411	1228.55581
604.771	1234.24973
605.131	1196.31566
605.49	1225.70935
605.85	1217.172
606.21	1236.148
606.569	1209.58578
606.928	1238.99568
607.288	1237.09719
607.647	1213.37859
608.006	1222.86323
608.366	1215.27522
608.725	1228.55581
609.084	1204.84561
609.443	1236.148
609.802	1209.58578
610.161	1216.22359
610.52	1220.96601
610.879	1237.09719
611.238	1225.70935
611.597	1228.55581
611.955	1236.148
612.314	1228.55581
612.673	1220.01745
613.031	1218.12044
613.39	1246.59115
613.749	1211.48211
614.107	1238.04642
614.465	1218.12044
614.824	1257.03879
615.182	1234.24973
615.54	1220.01745
615.899	1248.49038
616.257	1249.44006
616.615	1247.54075
616.973	1246.59115
617.331	1263.68962
617.689	1228.55581
618.047	1215.27522
618.405	1237.09719
618.763	1238.04642
619.12	1261.78919
619.478	1235.19885
619.836	1248.49038
620.193	1248.49038
620.551	1265.59019
620.908	1243.74257
621.266	1259.88892
621.623	1238.99568
621.981	1249.44006
622.338	1257.98879
622.695	1283.65296
623.053	1328.39155
623.41	1592.70939
623.767	1922.86769
624.124	1733.59669
624.481	1420.97793
624.838	1286.5062
625.195	1276.99671
625.552	1274.14458
625.909	1303.63254
626.266	1313.15231
626.622	1371.30179
626.979	1852.83955
627.336	3027.69355
627.692	1976.47241
628.049	1462.1292
628.405	1362.71388
628.762	1312.20017
629.118	1296.97089
629.474	1324.58086
629.831	1384.66659
630.187	1409.5056
630.543	1471.70865
630.899	1666.92335
631.255	1623.52705
631.611	1778.13354
631.967	3539.04942
632.323	7333.28409
632.679	6923.32743
633.035	5077.35989
633.391	10449.61673
633.747	22065.60687
634.102	34704.42549
634.458	49580.01941
634.814	59668.31654
635.169	41313.35599
635.525	19167.47443
635.88	7903.47064
636.236	3573.60985
636.591	2426.42025
636.946	1903.39881
637.302	1642.80582
637.657	1538.86314
638.012	1428.629
638.367	1375.11958
638.722	1369.39311
639.077	1332.20281
639.432	1283.65296
639.787	1316.96125
640.142	1275.09525
640.497	1249.44006
640.851	1249.44006
641.206	1224.76061
641.561	1227.60695
641.915	1227.60695
642.27	1234.24973
642.625	1224.76061
642.979	1225.70935
643.333	1223.8119
643.688	1236.148
644.042	1210.53392
644.396	1219.06893
644.751	1228.55581
645.105	1238.04642
645.459	1207.6896
645.813	1238.04642
646.167	1209.58578
646.521	1233.30065
646.875	1220.96601
647.229	1208.63767
647.582	1244.69206
647.936	1231.4026
648.29	1227.60695
648.644	1211.48211
648.997	1211.48211
649.351	1220.01745
649.704	1233.30065
650.058	1184.94712
650.411	1217.172
650.765	1213.37859
651.118	1201.05414
651.471	1238.99568
651.824	1202.00195
652.178	1203.89768
652.531	1186.8415
652.884	1192.52555
653.237	1205.79357
653.59	1208.63767
653.943	1218.12044
654.295	1202.9498
654.648	1199.15864
655.001	1214.32689
655.354	1208.63767
655.706	1186.8415
656.059	1213.37859
656.412	1200.10637
656.764	1199.15864
657.117	1222.86323
657.469	1206.74156
657.821	1230.45363
658.174	1220.96601
658.526	1211.48211
658.878	1201.05414
659.23	1205.79357
659.582	1216.22359
659.934	1200.10637
660.286	1209.58578
660.638	1206.74156
660.99	1202.9498
661.342	1202.00195
661.694	1198.21094
662.046	1220.01745
662.397	1222.86323
662.749	1201.05414
663.101	1193.47302
663.452	1204.84561
663.804	1189.68335
664.155	1204.84561
664.507	1220.96601
664.858	1210.53392
665.209	1238.99568
665.561	1203.89768
665.912	1205.79357
666.263	1204.84561
666.614	1206.74156
666.965	1224.76061
667.316	1204.84561
667.667	1216.22359
668.018	1217.172
668.369	1184.94712
668.72	1220.96601
669.07	1184.94712
669.421	1221.9146
669.772	1216.22359
670.122	1183.99999
670.473	1226.65814
670.823	1202.9498
671.174	1212.43033
671.524	1230.45363
671.875	1224.76061
672.225	1196.31566
672.575	1209.58578
672.925	1206.74156
673.275	1232.35161
673.626	1216.22359
673.976	1226.65814
674.326	1228.55581
674.676	1207.6896
675.025	1203.89768
675.375	1194.42053
675.725	1212.43033
676.075	1216.22359
676.424	1202.00195
676.774	1206.74156
677.124	1209.58578
677.473	1227.60695
677.823	1207.6896
678.172	1261.78919
678.522	1215.27522
678.871	1215.27522
679.22	1207.6896
679.569	1208.63767
679.919	1249.44006
680.268	1210.53392
680.617	1189.68335
680.966	1232.35161
681.315	1234.24973
681.664	1210.53392
682.013	1226.65814
682.361	1193.47302
682.71	1220.96601
683.059	1212.43033
683.408	1238.99568
683.756	1223.8119
684.105	1223.8119
684.453	1208.63767
684.802	1211.48211
685.15	1231.4026
685.499	1228.55581
685.847	1209.58578
686.195	1214.32689
686.543	1227.60695
686.891	1217.172
687.24	1220.96601
687.588	1215.27522
687.936	1206.74156
688.284	1237.09719
688.631	1211.48211
688.979	1208.63767
689.327	1198.21094
689.675	1224.76061
690.023	1218.12044
690.37	1220.01745
690.718	1200.10637
691.065	1203.89768
691.413	1209.58578
691.76	1206.74156
692.108	1253.23913
692.455	1209.58578
692.802	1206.74156
693.15	1201.05414
693.497	1208.63767
693.844	1203.89768
694.191	1220.96601
694.538	1215.27522
694.885	1207.6896
695.232	1210.53392
695.579	1209.58578
695.926	1185.89429
696.272	1213.37859
696.619	1198.21094
696.966	1189.68335
697.312	1204.84561
697.659	1207.6896
698.006	1199.15864
698.352	1230.45363
698.698	1201.05414
699.045	1192.52555
699.391	1194.42053
699.737	1203.89768
700.084	1226.65814
700.43	1237.09719
700.776	1217.172
701.122	1203.89768
701.468	1212.43033
701.814	1208.63767
702.16	1191.57811
702.506	1209.58578
702.851	1196.31566
703.197	1190.63071
703.543	1217.172
703.889	1202.9498
704.234	1197.26328
704.58	1220.96601
704.925	1216.22359
705.271	1211.48211
705.616	1202.00195
705.961	1207.6896
706.307	1225.70935
706.652	1199.15864
706.997	1211.48211
707.342	1210.53392
707.687	1218.12044
708.032	1224.76061
708.377	1209.58578
708.722	1197.26328
709.067	1221.9146
709.412	1206.74156
709.757	1213.37859
710.101	1209.58578
710.446	1202.9498
710.791	1190.63071
711.135	1210.53392
711.48	1202.00195
711.824	1202.00195
712.168	1194.42053
712.513	1202.9498
712.857	1194.42053
713.201	1242.79312
713.546	1225.70935
713.89	1193.47302
714.234	1216.22359
714.578	1226.65814
714.922	1214.32689
715.266	1228.55581
715.61	1220.01745
715.954	1213.37859
716.297	1225.70935
716.641	1223.8119
716.985	1194.42053
717.328	1203.89768
717.672	1256.08881
718.015	1230.45363
718.359	1231.4026
718.702	1212.43033
719.046	1189.68335
719.389	1198.21094
719.732	1214.32689
720.075	1233.30065
720.419	1226.65814
720.762	1212.43033
721.105	1204.84561
721.448	1219.06893
721.791	1189.68335
722.134	1216.22359
722.476	1208.63767
722.819	1207.6896
723.162	1201.05414
723.505	1185.89429
723.847	1209.58578
724.19	1208.63767
724.532	1211.48211
724.875	1204.84561
725.217	1231.4026
725.56	1212.43033
725.902	1204.84561
726.244	1186.8415
726.587	1223.8119
726.929	1201.05414
727.271	1188.73603
727.613	1202.9498
727.955	1194.42053
728.297	1213.37859
728.639	1187.78875
728.981	1195.36807
729.322	1224.76061
729.664	1225.70935
730.006	1205.79357
730.347	1200.10637
730.689	1211.48211
731.031	1246.59115
731.372	1186.8415
731.714	1228.55581
732.055	1213.37859
732.396	1223.8119
732.737	1220.01745
733.079	1187.78875
733.42	1201.05414
733.761	1197.26328
734.102	1240.89433
734.443	1186.8415
734.784	1238.99568
735.125	1201.05414
735.466	1203.89768
735.807	1203.89768
736.147	1195.36807
736.488	1186.8415
736.829	1202.9498
737.169	1210.53392
737.51	1211.48211
737.85	1203.89768
738.191	1203.89768
738.531	1210.53392
738.871	1220.96601
739.212	1198.21094
739.552	1218.12044
739.892	1202.9498
740.232	1178.31798
740.572	1195.36807
740.912	1198.21094
741.252	1202.00195
741.592	1206.74156
741.932	1213.37859
742.272	1202.00195
742.612	1197.26328
742.951	1208.63767
743.291	1201.05414
743.631	1205.79357
743.97	1201.05414
744.31	1201.05414
744.649	1193.47302
744.988	1213.37859
745.328	1204.84561
745.667	1208.63767
746.006	1214.32689
746.345	1193.47302
746.685	1203.89768
747.024	1203.89768
747.363	1190.63071
747.702	1250.38977
748.04	1208.63767
748.379	1191.57811
748.718	1204.84561
749.057	1208.63767
749.396	1210.53392
749.734	1201.05414
750.073	1220.96601
750.411	1202.00195
750.75	1231.4026
751.088	1202.9498
751.427	1195.36807
751.765	1179.26489
752.103	1227.60695
752.441	1199.15864
752.78	1218.12044
753.118	1215.27522
753.456	1203.89768
753.794	1183.05289
754.132	1199.15864
754.47	1219.06893
754.807	1230.45363
755.145	1201.05414
755.483	1190.63071
755.821	1202.00195
756.158	1209.58578
756.496	1222.86323
756.833	1195.36807
757.171	1192.52555
757.508	1212.43033
757.846	1195.36807
758.183	1212.43033
758.52	1194.42053
758.857	1212.43033
759.195	1197.26328
759.532	1214.32689
759.869	1202.00195
760.206	1209.58578
760.543	1220.01745
760.88	1202.9498
761.216	1202.00195
761.553	1188.73603
761.89	1213.37859
762.227	1190.63071
762.563	1214.32689
762.9	1189.68335
763.236	1203.89768
763.573	1221.9146
763.909	1193.47302
764.245	1200.10637
764.582	1195.36807
764.918	1197.26328
765.254	1197.26328
765.59	1192.52555
765.926	1222.86323
766.262	1205.79357
766.598	1196.31566
766.934	1195.36807
767.27	1207.6896
767.606	1201.05414
767.942	1203.89768
768.278	1212.43033
768.613	1190.63071
768.949	1216.22359
769.284	1192.52555
769.62	1202.00195
769.955	1222.86323
770.291	1212.43033
770.626	1194.42053
770.961	1204.84561
771.297	1199.15864
771.632	1203.89768
771.967	1217.172
772.302	1223.8119
772.637	1205.79357
772.972	1213.37859
773.307	1202.00195
773.642	1221.9146
773.976	1209.58578
774.311	1205.79357
774.646	1204.84561
774.981	1210.53392
775.315	1182.10584
775.65	1214.32689
775.984	1222.86323
776.319	1185.89429
776.653	1206.74156
776.987	1220.96601
777.321	1195.36807
777.656	1212.43033
777.99	1218.12044
778.324	1247.54075
778.658	1229.5047
778.992	1194.42053
779.326	1210.53392
779.66	1200.10637
779.994	1202.9498
780.327	1202.9498
780.661	1203.89768
780.995	1209.58578
781.328	1197.26328
781.662	1213.37859
781.995	1206.74156
782.329	1207.6896
782.662	1220.96601
782.996	1186.8415
783.329	1217.172
783.662	1200.10637
783.995	1218.12044
784.329	1218.12044
784.662	1225.70935
784.995	1196.31566
785.328	1219.06893
785.661	1189.68335
785.993	1203.89768
786.326	1220.01745
786.659	1224.76061
786.992	1210.53392
787.324	1208.63767
787.657	1222.86323
787.989	1209.58578
788.322	1202.00195
788.654	1196.31566
788.987	1238.04642
789.319	1212.43033
789.651	1211.48211
789.983	1218.12044
790.316	1208.63767
790.648	1170.74408
790.98	1201.05414
791.312	1205.79357
791.644	1217.172
791.976	1205.79357
792.307	1160.3339
792.639	1208.63767
792.971	1213.37859
793.303	1210.53392
793.634	1184.94712
793.966	1191.57811
794.297	1188.73603
794.629	1208.63767
794.96	1229.5047
795.291	1204.84561
795.623	1198.21094
795.954	1208.63767
796.285	1213.37859
796.616	1205.79357
796.947	1209.58578
797.278	1214.32689
797.609	1210.53392
797.94	1199.15864
798.271	1215.27522
798.602	1219.06893
798.933	1179.26489
799.263	1213.37859
799.594	1208.63767
799.925	1206.74156
800.255	1204.84561
800.586	1205.79357
800.916	1207.6896
801.246	1194.42053
801.577	1221.9146
801.907	1209.58578
802.237	1203.89768
802.567	1224.76061
802.897	1211.48211
803.227	1224.76061
803.557	1199.15864
803.887	1217.172
804.217	1216.22359
804.547	1197.26328
804.877	1208.63767
805.206	1222.86323
805.536	1180.21183
805.866	1192.52555
806.195	1204.84561
806.525	1210.53392
806.854	1233.30065
807.183	1199.15864
807.513	1210.53392
807.842	1208.63767
808.171	1191.57811
808.5	1223.8119
808.83	1214.32689
809.159	1212.43033
809.488	1204.84561
809.817	1229.5047
810.145	1191.57811
810.474	1198.21094
810.803	1228.55581
811.132	1207.6896
811.46	1213.37859
811.789	1199.15864
812.118	1201.05414
812.446	1207.6896
812.775	1221.9146
813.103	1231.4026
813.431	1206.74156
813.76	1212.43033
814.088	1219.06893
814.416	1199.15864
814.744	1219.06893
815.072	1243.74257
815.4	1195.36807
815.728	1231.4026
816.056	1197.26328
816.384	1210.53392
816.712	1206.74156
817.039	1220.01745
817.367	1211.48211
817.695	1227.60695
818.022	1220.01745
818.35	1221.9146
818.677	1167.90448
819.005	1212.43033
819.332	1204.84561
819.659	1215.27522
819.986	1219.06893
820.314	1214.32689
820.641	1201.05414
820.968	1219.06893
821.295	1223.8119
821.622	1212.43033
821.949	1196.31566
822.276	1190.63071
822.602	1253.23913
822.929	1238.99568
823.256	1196.31566
823.582	1212.43033
823.909	1190.63071
824.235	1227.60695
824.562	1221.9146
824.888	1236.148
825.215	1232.35161
825.541	1193.47302
825.867	1220.96601
826.193	1210.53392
826.52	1229.5047
826.846	1208.63767
827.172	1205.79357
827.498	1242.79312
827.823	1229.5047
828.149	1220.01745
828.475	1198.21094
828.801	1219.06893
829.127	1237.09719
829.452	1236.148
829.778	1203.89768
830.103	1209.58578
830.429	1218.12044
830.754	1220.01745
831.08	1193.47302
831.405	1211.48211
831.73	1208.63767
832.055	1216.22359
832.38	1197.26328
832.705	1242.79312
833.03	1206.74156
833.355	1213.37859
833.68	1199.15864
834.005	1240.89433
834.33	1223.8119
834.655	1204.84561
834.979	1205.79357
835.304	1202.9498
835.629	1224.76061
835.953	1211.48211
836.278	1200.10637
836.602	1229.5047
836.926	1204.84561
837.251	1193.47302
837.575	1184.94712
837.899	1202.9498
838.223	1201.05414
838.547	1203.89768
838.871	1211.48211
839.195	1227.60695
839.519	1210.53392
839.843	1203.89768
840.167	1229.5047
840.491	1219.06893
840.814	1225.70935
841.138	1214.32689
841.462	1199.15864
841.785	1195.36807
842.108	1228.55581
842.432	1213.37859
842.755	1203.89768
843.079	1224.76061
843.402	1217.172
843.725	1220.96601
844.048	1243.74257
844.371	1219.06893
844.694	1220.01745
845.017	1212.43033
845.34	1203.89768
845.663	1208.63767
845.986	1202.9498
846.308	1213.37859
846.631	1235.19885
846.954	1211.48211
847.276	1213.37859
847.599	1240.89433
847.921	1205.79357
848.244	1211.48211
848.566	1214.32689
848.888	1214.32689
849.211	1202.00195
849.533	1201.05414
849.855	1233.30065
850.177	1198.21094
850.499	1196.31566
850.821	1203.89768
851.143	1187.78875
851.465	1216.22359
851.786	1200.10637
852.108	1191.57811
852.43	1224.76061
852.751	1211.48211
853.073	1214.32689
853.394	1203.89768
853.716	1211.48211
854.037	1203.89768
854.359	1201.05414
854.68	1185.89429
855.001	1229.5047
855.322	1220.01745
855.643	1197.26328
855.964	1226.65814
856.285	1213.37859
856.606	1211.48211
856.927	1207.6896
857.248	1251.33952
857.569	1196.31566
857.889	1224.76061
858.21	1199.15864
858.531	1218.12044
858.851	1221.9146
859.172	1207.6896
859.492	1202.00195
859.813	1217.172
860.133	1219.06893
860.453	1210.53392
860.773	1187.78875
861.094	1224.76061
861.414	1223.8119
861.734	1218.12044
862.054	1195.36807
862.374	1209.58578
862.693	1222.86323
863.013	1218.12044
863.333	1218.12044
863.653	1205.79357
863.972	1220.96601
864.292	1223.8119
864.611	1217.172
864.931	1222.86323
865.25	1234.24973
865.57	1221.9146
865.889	1213.37859
866.208	1189.68335
866.527	1212.43033
866.847	1214.32689
867.166	1210.53392
867.485	1233.30065
867.804	1202.9498
868.123	1195.36807
868.441	1228.55581
868.76	1216.22359
869.079	1204.84561
869.398	1222.86323
869.716	1208.63767
870.035	1233.30065
870.353	1210.53392
870.672	1214.32689
870.99	1207.6896
871.308	1192.52555
871.627	1209.58578
871.945	1229.5047
872.263	1213.37859
872.581	1238.04642
872.899	1220.96601
873.217	1213.37859
873.535	1210.53392
873.853	1218.12044
874.171	1216.22359
874.489	1226.65814
874.806	1197.26328
875.124	1222.86323
875.442	1220.96601
875.759	1213.37859
876.077	1220.96601
876.394	1209.58578
876.711	1206.74156
877.029	1194.42053
877.346	1226.65814
877.663	1240.89433
877.98	1210.53392
878.297	1213.37859
878.614	1214.32689
878.931	1198.21094
879.248	1242.79312
879.565	1199.15864
879.882	1200.10637
880.199	1221.9146
880.515	1223.8119
880.832	1230.45363
881.149	1214.32689
881.465	1206.74156
881.782	1214.32689
882.098	1223.8119
882.414	1239.94499
882.731	1221.9146
883.047	1223.8119
883.363	1234.24973
883.679	1207.6896
883.995	1204.84561
884.311	1211.48211
884.627	1200.10637
884.943	1212.43033
885.259	1211.48211
885.575	1216.22359
885.89	1196.31566
886.206	1194.42053
886.522	1206.74156
886.837	1242.79312
887.153	1223.8119
887.468	1211.48211
887.783	1218.12044
888.099	1214.32689
888.414	1205.79357
888.729	1206.74156
889.044	1200.10637
889.359	1186.8415
889.674	1222.86323
889.989	1194.42053
890.304	1243.74257
890.619	1191.57811
890.934	1221.9146
891.249	1202.9498
891.563	1210.53392
891.878	1201.05414
892.193	1230.45363
892.507	1231.4026
892.822	1198.21094
893.136	1211.48211
893.45	1214.32689
893.765	1220.01745
894.079	1212.43033
894.393	1220.01745
894.707	1221.9146
895.021	1236.148
895.335	1202.00195
895.649	1230.45363
895.963	1228.55581
896.277	1196.31566
896.591	1250.38977
896.904	1211.48211
897.218	1205.79357
897.531	1191.57811
897.845	1206.74156
898.158	1189.68335
898.472	1221.9146
898.785	1216.22359
899.099	1207.6896
899.412	1223.8119
899.725	1204.84561
900.038	1213.37859
900.351	1216.22359
900.664	1212.43033
900.977	1210.53392
901.29	1223.8119
901.603	1204.84561
901.916	1215.27522
902.228	1226.65814
902.541	1199.15864
902.854	1233.30065
903.166	1204.84561
903.479	1203.89768
903.791	1197.26328
904.104	1199.15864
904.416	1209.58578
904.728	1222.86323
905.04	1211.48211
905.352	1205.79357
905.665	1200.10637
905.977	1237.09719
906.289	1209.58578
906.6	1214.32689
906.912	1202.00195
907.224	1196.31566
907.536	1213.37859
907.848	1214.32689
908.159	1201.05414
908.471	1220.96601
908.782	1190.63071
909.094	1197.26328
909.405	1221.9146
909.716	1217.172
910.028	1195.36807
910.339	1209.58578
910.65	1202.9498
910.961	1219.06893
911.272	1238.99568
911.583	1233.30065
911.894	1212.43033
912.205	1200.10637
912.516	1202.9498
912.827	1221.9146
913.137	1235.19885
913.448	1188.73603
913.758	1227.60695
914.069	1204.84561
914.379	1192.52555
914.69	1195.36807
915	1197.26328
915.31	1204.84561
915.621	1211.48211
915.931	1226.65814
916.241	1184.94712
916.551	1225.70935
916.861	1202.9498
917.171	1235.19885
917.481	1206.74156
917.791	1213.37859
918.1	1189.68335
918.41	1201.05414
918.72	1214.32689
919.029	1219.06893
919.339	1219.06893
919.648	1204.84561
919.958	1220.01745
920.267	1205.79357
920.576	1192.52555
920.886	1200.10637
921.195	1212.43033
921.504	1232.35161
921.813	1209.58578
922.122	1220.01745
922.431	1207.6896
922.74	1222.86323
923.049	1214.32689
923.357	1220.96601
923.666	1197.26328
923.975	1222.86323
924.283	1210.53392
924.592	1220.01745
924.9	1189.68335
925.209	1211.48211
925.517	1201.05414
925.825	1207.6896
926.134	1199.15864
926.442	1210.53392
926.75	1275.09525
927.058	1192.52555
927.366	1212.43033
927.674	1215.27522
927.982	1209.58578
928.29	1221.9146
928.598	1213.37859
928.905	1208.63767
929.213	1207.6896
929.521	1214.32689
929.828	1183.05289
930.136	1229.5047
930.443	1203.89768
930.75	1211.48211
931.058	1202.9498
931.365	1222.86323
931.672	1228.55581
931.979	1201.05414
932.286	1208.63767
932.593	1216.22359
932.9	1212.43033
933.207	1223.8119
933.514	1215.27522
933.821	1201.05414
934.127	1202.9498
934.434	1206.74156
934.741	1206.74156
935.047	1201.05414
935.354	1200.10637
935.66	1200.10637
935.966	1224.76061
936.273	1225.70935
936.579	1213.37859
936.885	1239.94499
937.191	1212.43033
937.497	1210.53392
937.803	1208.63767
938.109	1222.86323
938.415	1211.48211
938.721	1214.32689
939.027	1212.43033
939.333	1210.53392
939.638	1191.57811
939.944	1218.12044
940.249	1198.21094
940.555	1224.76061
940.86	1213.37859
941.166	1200.10637
941.471	1232.35161
941.776	1215.27522
942.081	1209.58578
942.386	1220.96601
942.692	1202.9498
942.997	1189.68335
943.301	1212.43033
943.606	1202.9498
943.911	1202.9498
944.216	1195.36807
944.521	1196.31566
944.825	1214.32689
945.13	1219.06893
945.434	1221.9146
945.739	1213.37859
946.043	1202.9498
946.348	1200.10637
946.652	1197.26328
946.956	1204.84561
947.26	1209.58578
947.564	1204.84561
947.869	1196.31566
948.173	1198.21094
948.476	1228.55581
948.78	1214.32689
949.084	1215.27522
949.388	1263.68962
949.692	1186.8415
949.995	1206.74156
950.299	1216.22359
950.602	1201.05414
950.906	1189.68335
951.209	1217.172
951.513	1210.53392
951.816	1180.21183
952.119	1195.36807
952.422	1186.8415
952.725	1208.63767
953.028	1229.5047
953.331	1196.31566
953.634	1248.49038
953.937	1362.71388
954.24	1219.06893
954.543	1205.79357
954.845	1230.45363
955.148	1225.70935
955.451	1206.74156
955.753	1221.9146
956.056	1233.30065
956.358	1205.79357
956.66	1177.37111
956.963	1200.10637
957.265	1219.06893
957.567	1203.89768
957.869	1202.00195
958.171	1196.31566
958.473	1205.79357
958.775	1189.68335
959.077	1202.00195
959.379	1218.12044
959.68	1210.53392
959.982	1217.172
960.284	1204.84561
960.585	1212.43033
960.887	1205.79357
961.188	1205.79357
961.49	1205.79357
961.791	1219.06893
962.092	1220.01745
962.393	1216.22359
962.694	1234.24973
962.996	1241.8437
963.297	1200.10637
963.597	1231.4026
963.898	1224.76061
964.199	1231.4026
964.5	1223.8119
964.801	1207.6896
965.101	1211.48211
965.402	1202.00195
965.703	1219.06893
966.003	1211.48211
966.303	1220.01745
966.604	1211.48211
966.904	1216.22359
967.204	1234.24973
967.504	1209.58578
967.805	1205.79357
968.105	1213.37859
968.405	1209.58578
968.705	1220.96601
969.004	1199.15864
969.304	1211.48211
969.604	1220.96601
969.904	1204.84561
970.203	1220.01745
970.503	1203.89768
970.802	1202.00195
971.102	1194.42053
971.401	1214.32689
971.701	1184.94712
972	1191.57811
972.299	1199.15864
972.598	1212.43033
972.897	1213.37859
973.196	1203.89768
973.495	1213.37859
973.794	1208.63767
974.093	1202.9498
974.392	1194.42053
974.691	1202.00195
974.989	1208.63767
975.288	1219.06893
975.587	1198.21094
975.885	1209.58578
976.184	1201.05414
976.482	1237.09719
976.78	1207.6896
977.078	1220.96601
977.377	1209.58578
977.675	1208.63767
977.973	1203.89768
978.271	1236.148
978.569	1214.32689
978.867	1186.8415
979.165	1208.63767
979.462	1211.48211
979.76	1226.65814
980.058	1234.24973
980.355	1199.15864
980.653	1211.48211
980.95	1205.79357
981.248	1221.9146
981.545	1197.26328
981.842	1211.48211
982.14	1205.79357
982.437	1228.55581
982.734	1220.96601
983.031	1220.96601
983.328	1216.22359
983.625	1201.05414
983.922	1221.9146
984.218	1216.22359
984.515	1208.63767
984.812	1220.01745
985.108	1198.21094
985.405	1200.10637
985.702	1215.27522
985.998	1207.6896
986.294	1224.76061
986.591	1223.8119
986.887	1186.8415
987.183	1213.37859
987.479	1204.84561
987.775	1225.70935
988.071	1219.06893
988.367	1188.73603
988.663	1231.4026
988.959	1210.53392
989.255	1220.96601
989.551	1202.9498
989.846	1220.01745
990.142	1226.65814
990.437	1200.10637
990.733	1239.94499
991.028	1233.30065
991.324	1221.9146
991.619	1220.01745
991.914	1223.8119
992.209	1197.26328
992.504	1224.76061
992.799	1227.60695
993.094	1208.63767
993.389	1233.30065
993.684	1204.84561
993.979	1214.32689
994.274	1206.74156
994.568	1207.6896
994.863	1199.15864
995.157	1227.60695
995.452	1223.8119
995.746	1219.06893
996.041	1213.37859
996.335	1194.42053
996.629	1220.96601
996.924	1205.79357
997.218	1195.36807
997.512	1238.04642
997.806	1211.48211
998.1	1226.65814
998.394	1227.60695
998.687	1202.00195
998.981	1230.45363
999.275	1219.06893
999.568	1193.47302
999.862	1222.86323
1000.156	1216.22359
1000.449	1217.172
1000.742	1220.01745
1001.036	1203.89768
1001.329	1193.47302
1001.622	1202.9498
1001.915	1218.12044
1002.209	1211.48211
1002.502	1211.48211
1002.794	1207.6896
1003.087	1226.65814
1003.38	1223.8119
1003.673	1231.4026
1003.966	1197.26328
1004.258	1219.06893
1004.551	1213.37859
1004.844	1202.9498
1005.136	1209.58578
1005.428	1206.74156
1005.721	1213.37859
1006.013	1213.37859
1006.305	1226.65814
1006.597	1205.79357
1006.89	1237.09719
1007.182	1189.68335
1007.474	1207.6896
1007.766	1215.27522
1008.057	1211.48211
1008.349	1211.48211
1008.641	1209.58578
1008.933	1197.26328
1009.224	1202.9498
1009.516	1214.32689
1009.807	1201.05414
1010.099	1216.22359
1010.39	1193.47302
1010.681	1188.73603
1010.973	1202.9498
1011.264	1210.53392
1011.555	1200.10637
1011.846	1203.89768
1012.137	1215.27522
1012.428	1206.74156
1012.719	1202.9498
1013.01	1205.79357
1013.3	1217.172
1013.591	1206.74156
1013.882	1217.172
1014.172	1181.15881
1014.463	1231.4026
1014.753	1213.37859
1015.044	1203.89768
1015.334	1207.6896
1015.624	1224.76061
1015.914	1215.27522
1016.205	1216.22359
1016.495	1231.4026
1016.785	1206.74156
1017.075	1203.89768
1017.365	1210.53392
1017.654	1240.89433
1017.944	1226.65814
1018.234	1223.8119
1018.524	1202.00195
1018.813	1206.74156
1019.103	1221.9146
1019.392	1200.10637
1019.681	1219.06893
1019.971	1201.05414
1020.26	1219.06893
1020.549	1242.79312
1020.838	1225.70935
1021.128	1217.172
1021.417	1242.79312
1021.706	1231.4026
1021.994	1177.37111
1022.283	1220.96601
1022.572	1219.06893
1022.861	1225.70935
1023.149	1212.43033
1023.438	1201.05414
1023.727	1202.00195
1024.015	1257.98879
1024.303	1222.86323
1024.592	1217.172
1024.88	1215.27522
1025.168	1200.10637
1025.456	1218.12044
1025.745	1246.59115
1026.033	1214.32689
1026.321	1211.48211
1026.608	1197.26328
1026.896	1227.60695
1027.184	1211.48211
1027.472	1200.10637
1027.76	1195.36807
1028.047	1209.58578
1028.335	1209.58578
1028.622	1210.53392
1028.91	1215.27522
1029.197	1209.58578
1029.484	1200.10637
1029.771	1222.86323
1030.059	1190.63071
1030.346	1226.65814
1030.633	1235.19885
1030.92	1187.78875
1031.207	1203.89768
1031.493	1216.22359
1031.78	1201.05414
1032.067	1197.26328
1032.354	1213.37859
1032.64	1200.10637
1032.927	1202.9498
1033.213	1240.89433
1033.5	1208.63767
1033.786	1209.58578
1034.072	1241.8437
1034.359	1214.32689
1034.645	1207.6896
1034.931	1223.8119
1035.217	1198.21094
1035.503	1214.32689
1035.789	1210.53392
1036.075	1226.65814
1036.36	1197.26328
1036.646	1183.05289
1036.932	1190.63071
1037.217	1219.06893
1037.503	1181.15881
1037.789	1198.21094
1038.074	1203.89768
1038.359	1183.99999
1038.645	1222.86323
1038.93	1228.55581
1039.215	1218.12044
1039.5	1184.94712
1039.785	1202.9498
1040.07	1201.05414
1040.355	1215.27522
1040.64	1193.47302
1040.925	1197.26328
1041.209	1195.36807
1041.494	1195.36807
1041.779	1203.89768
1042.063	1414.28511
1042.348	1182.10584
1042.632	1198.21094
1042.917	1201.05414
1043.201	1181.15881
1043.485	1173.58401
1043.769	1192.52555
1044.053	1183.05289
1044.337	1188.73603
1044.621	1177.37111
1044.905	1194.42053
1045.189	1176.42428
1045.473	1187.78875
1045.757	1161.28009
1046.04	1174.53073
1046.324	1175.47748
1046.607	1169.79751
1046.891	1187.78875
1047.174	1165.06523
