Data from uniphase1507p0_USB4C031521__0__16-18-35-607.txt Node

Date: Wed May 06 16:18:35 CEST 2026
User: FIDOPA_3
Spectrometer: USB4C03152
Scans to average: 1
Trigger mode: 4
Integration Time (sec): 6.000000E-4
Electric dark correction enabled: true
Boxcar width: 0
XAxis mode: Wavelengths
Number of Pixels in Spectrum: 3648
>>>>>Begin Spectral Data<<<<<
445.929	-30.54887
446.14	-30.54887
446.351	-30.54887
446.562	24.74629
446.773	-16.21309
446.984	39.08207
447.194	28.84223
447.405	-12.11715
447.616	12.45848
447.827	12.45848
448.038	30.8902
448.249	-67.4123
448.459	-1.8773
448.67	-10.06918
448.881	32.93816
449.092	-44.88465
449.303	-20.30902
449.513	34.98613
449.724	-40.78871
449.935	-28.5009
450.146	45.22598
450.356	-26.45293
450.567	-83.79605
450.778	55.46582
450.988	43.17801
451.199	-5.97324
451.41	6.31457
451.62	10.41051
451.831	-22.35699
452.042	6.31457
452.252	24.74629
452.463	32.93816
452.674	20.65035
452.884	57.51379
453.095	2.21863
453.305	-46.93262
453.516	30.8902
453.727	24.74629
453.937	-16.21309
454.148	10.41051
454.358	32.93816
454.569	-5.97324
454.779	-20.30902
454.99	10.41051
455.2	-1.8773
455.411	-55.12449
455.621	-5.97324
455.832	4.2666
456.042	96.4252
456.253	-40.78871
456.463	8.36254
456.674	-96.08387
456.884	106.66504
457.095	-28.5009
457.305	-53.07652
457.515	24.74629
457.726	-59.22043
457.936	26.79426
458.147	-61.2684
458.357	-5.97324
458.567	8.36254
458.778	-8.02121
458.988	24.74629
459.198	16.55441
459.409	-20.30902
459.619	41.13004
459.829	41.13004
460.039	20.65035
460.25	39.08207
460.46	-30.54887
460.67	-10.06918
460.881	-36.69277
461.091	24.74629
461.301	14.50645
461.511	14.50645
461.721	2.21863
461.932	37.0341
462.142	-12.11715
462.352	-40.78871
462.562	-38.74074
462.772	-16.21309
462.983	20.65035
463.193	-42.83668
463.403	47.27395
463.613	0.17066
463.823	-26.45293
464.033	16.55441
464.243	45.22598
464.453	12.45848
464.664	2.21863
464.874	-1.8773
465.084	16.55441
465.294	-38.74074
465.504	71.84957
465.714	32.93816
465.924	-34.6448
466.134	-14.16512
466.344	-22.35699
466.554	53.41785
466.764	8.36254
466.974	-85.84402
467.184	0.17066
467.394	51.36988
467.604	-34.6448
467.814	45.22598
468.024	-65.36434
468.233	8.36254
468.443	34.98613
468.653	-26.45293
468.863	-65.36434
469.073	12.45848
469.283	-44.88465
469.493	-3.92527
469.703	-44.88465
469.912	-14.16512
470.122	-14.16512
470.332	32.93816
470.542	47.27395
470.752	-53.07652
470.962	-8.02121
471.171	32.93816
471.381	-8.02121
471.591	39.08207
471.801	41.13004
472.01	-24.40496
472.22	10.41051
472.43	59.56176
472.64	34.98613
472.849	-3.92527
473.059	-34.6448
473.269	8.36254
473.478	26.79426
473.688	67.75363
473.898	-44.88465
474.107	75.94551
474.317	30.8902
474.527	-32.59684
474.736	2.21863
474.946	63.6577
475.155	43.17801
475.365	30.8902
475.575	-12.11715
475.784	28.84223
475.994	12.45848
476.203	-1.8773
476.413	6.31457
476.622	-59.22043
476.832	24.74629
477.041	0.17066
477.251	30.8902
477.46	-12.11715
477.67	20.65035
477.879	16.55441
478.089	10.41051
478.298	28.84223
478.508	-44.88465
478.717	20.65035
478.927	-34.6448
479.136	37.0341
479.345	8.36254
479.555	57.51379
479.764	-75.60418
479.974	4.2666
480.183	-34.6448
480.392	-26.45293
480.602	26.79426
480.811	2.21863
481.02	6.31457
481.23	14.50645
481.439	-48.98059
481.648	8.36254
481.858	-53.07652
482.067	-18.26105
482.276	16.55441
482.485	49.32191
482.695	20.65035
482.904	18.60238
483.113	32.93816
483.322	16.55441
483.532	-10.06918
483.741	-53.07652
483.95	59.56176
484.159	53.41785
484.368	-8.02121
484.577	12.45848
484.787	-5.97324
484.996	-1.8773
485.205	-16.21309
485.414	-38.74074
485.623	-63.31637
485.832	12.45848
486.041	59.56176
486.25	12.45848
486.459	10.41051
486.669	37.0341
486.878	-24.40496
487.087	-63.31637
487.296	-51.02855
487.505	32.93816
487.714	24.74629
487.923	20.65035
488.132	-8.02121
488.341	18.60238
488.55	71.84957
488.759	16.55441
488.968	16.55441
489.177	12.45848
489.385	-32.59684
489.594	8.36254
489.803	-61.2684
490.012	84.13738
490.221	-44.88465
490.43	-5.97324
490.639	10.41051
490.848	-26.45293
491.057	-18.26105
491.265	0.17066
491.474	-20.30902
491.683	0.17066
491.892	-75.60418
492.101	-32.59684
492.31	18.60238
492.518	-46.93262
492.727	-63.31637
492.936	22.69832
493.145	18.60238
493.353	-46.93262
493.562	-26.45293
493.771	-24.40496
493.98	18.60238
494.188	-36.69277
494.397	43.17801
494.606	18.60238
494.814	-30.54887
495.023	-24.40496
495.232	-16.21309
495.44	-1.8773
495.649	-3.92527
495.858	-63.31637
496.066	18.60238
496.275	43.17801
496.483	4.2666
496.692	12.45848
496.901	-14.16512
497.109	-26.45293
497.318	86.18535
497.526	-20.30902
497.735	45.22598
497.943	18.60238
498.152	22.69832
498.36	-8.02121
498.569	-32.59684
498.777	-42.83668
498.986	41.13004
499.194	37.0341
499.403	-20.30902
499.611	-79.70012
499.82	-1.8773
500.028	18.60238
500.236	57.51379
500.445	75.94551
500.653	30.8902
500.862	-22.35699
501.07	-16.21309
501.278	-53.07652
501.487	-40.78871
501.695	-16.21309
501.903	28.84223
502.112	32.93816
502.32	-16.21309
502.528	-16.21309
502.737	53.41785
502.945	-65.36434
503.153	-28.5009
503.361	45.22598
503.57	-8.02121
503.778	10.41051
503.986	-53.07652
504.194	67.75363
504.403	-51.02855
504.611	-61.2684
504.819	-108.37168
505.027	30.8902
505.235	-24.40496
505.443	100.52113
505.652	43.17801
505.86	0.17066
506.068	-42.83668
506.276	10.41051
506.484	-20.30902
506.692	75.94551
506.9	49.32191
507.108	20.65035
507.316	14.50645
507.524	18.60238
507.733	-10.06918
507.941	-87.89199
508.149	6.31457
508.357	80.04145
508.565	-38.74074
508.773	-14.16512
508.981	20.65035
509.189	-3.92527
509.397	39.08207
509.605	71.84957
509.812	-104.27574
510.02	45.22598
510.228	-42.83668
510.436	-12.11715
510.644	-42.83668
510.852	51.36988
511.06	10.41051
511.268	-57.17246
511.476	0.17066
511.684	-34.6448
511.891	-73.55621
512.099	45.22598
512.307	14.50645
512.515	20.65035
512.723	4.2666
512.93	47.27395
513.138	49.32191
513.346	-71.50824
513.554	65.70566
513.761	26.79426
513.969	12.45848
514.177	-3.92527
514.385	16.55441
514.592	8.36254
514.8	-18.26105
515.008	-57.17246
515.215	-8.02121
515.423	-16.21309
515.631	-26.45293
515.838	55.46582
516.046	-8.02121
516.254	30.8902
516.461	45.22598
516.669	-22.35699
516.876	-57.17246
517.084	-12.11715
517.292	12.45848
517.499	20.65035
517.707	-48.98059
517.914	10.41051
518.122	16.55441
518.329	-1.8773
518.537	14.50645
518.744	8.36254
518.952	-87.89199
519.159	24.74629
519.367	-57.17246
519.574	26.79426
519.782	-61.2684
519.989	8.36254
520.197	14.50645
520.404	63.6577
520.611	2.21863
520.819	49.32191
521.026	0.17066
521.234	-46.93262
521.441	-5.97324
521.648	-40.78871
521.856	0.17066
522.063	12.45848
522.27	32.93816
522.478	0.17066
522.685	10.41051
522.892	37.0341
523.1	39.08207
523.307	-10.06918
523.514	12.45848
523.721	-40.78871
523.929	61.60973
524.136	-55.12449
524.343	53.41785
524.55	-36.69277
524.757	2.21863
524.965	-3.92527
525.172	-40.78871
525.379	39.08207
525.586	8.36254
525.793	-3.92527
526	37.0341
526.208	12.45848
526.415	-18.26105
526.622	8.36254
526.829	-34.6448
527.036	30.8902
527.243	-1.8773
527.45	4.2666
527.657	34.98613
527.864	-79.70012
528.071	18.60238
528.278	26.79426
528.485	-67.4123
528.692	26.79426
528.899	30.8902
529.106	30.8902
529.313	-83.79605
529.52	-18.26105
529.727	4.2666
529.934	-34.6448
530.141	-18.26105
530.348	22.69832
530.555	-5.97324
530.762	-40.78871
530.968	-12.11715
531.175	18.60238
531.382	37.0341
531.589	-65.36434
531.796	-3.92527
532.003	-20.30902
532.21	6.31457
532.416	-32.59684
532.623	10.41051
532.83	49.32191
533.037	28.84223
533.243	-10.06918
533.45	2.21863
533.657	28.84223
533.864	18.60238
534.07	-1.8773
534.277	-1.8773
534.484	10.41051
534.691	-20.30902
534.897	-8.02121
535.104	12.45848
535.311	67.75363
535.517	4.2666
535.724	47.27395
535.93	-44.88465
536.137	26.79426
536.344	-55.12449
536.55	30.8902
536.757	49.32191
536.963	34.98613
537.17	2.21863
537.377	-32.59684
537.583	-14.16512
537.79	55.46582
537.996	8.36254
538.203	32.93816
538.409	-8.02121
538.616	49.32191
538.822	16.55441
539.029	51.36988
539.235	16.55441
539.442	-22.35699
539.648	45.22598
539.854	-51.02855
540.061	-10.06918
540.267	-3.92527
540.474	-12.11715
540.68	-38.74074
540.886	20.65035
541.093	-30.54887
541.299	84.13738
541.505	-14.16512
541.712	57.51379
541.918	47.27395
542.124	-14.16512
542.331	34.98613
542.537	28.84223
542.743	49.32191
542.949	-10.06918
543.156	45.22598
543.362	-22.35699
543.568	-55.12449
543.774	24.74629
543.981	-10.06918
544.187	-10.06918
544.393	-44.88465
544.599	6.31457
544.805	-8.02121
545.011	-22.35699
545.218	8.36254
545.424	-26.45293
545.63	51.36988
545.836	-57.17246
546.042	-36.69277
546.248	-12.11715
546.454	-53.07652
546.66	14.50645
546.866	28.84223
547.072	-12.11715
547.278	80.04145
547.484	30.8902
547.69	4.2666
547.896	-10.06918
548.102	14.50645
548.308	32.93816
548.514	37.0341
548.72	-36.69277
548.926	24.74629
549.132	-32.59684
549.338	-16.21309
549.544	32.93816
549.75	-69.46027
549.956	4.2666
550.162	-34.6448
550.368	-36.69277
550.574	53.41785
550.779	20.65035
550.985	-12.11715
551.191	-28.5009
551.397	-67.4123
551.603	0.17066
551.808	61.60973
552.014	-65.36434
552.22	30.8902
552.426	-67.4123
552.632	-5.97324
552.837	-12.11715
553.043	16.55441
553.249	-46.93262
553.454	14.50645
553.66	55.46582
553.866	45.22598
554.071	-46.93262
554.277	12.45848
554.483	-36.69277
554.688	28.84223
554.894	18.60238
555.1	-32.59684
555.305	-3.92527
555.511	-24.40496
555.716	18.60238
555.922	-20.30902
556.128	-40.78871
556.333	22.69832
556.539	10.41051
556.744	-20.30902
556.95	-5.97324
557.155	8.36254
557.361	-3.92527
557.566	-100.1798
557.772	37.0341
557.977	86.18535
558.183	8.36254
558.388	-8.02121
558.594	-10.06918
558.799	-65.36434
559.004	28.84223
559.21	-20.30902
559.415	-10.06918
559.621	63.6577
559.826	53.41785
560.031	-38.74074
560.237	10.41051
560.442	-1.8773
560.647	-79.70012
560.853	41.13004
561.058	18.60238
561.263	-1.8773
561.468	-30.54887
561.674	88.23332
561.879	-16.21309
562.084	-16.21309
562.289	39.08207
562.495	34.98613
562.7	-20.30902
562.905	32.93816
563.11	-40.78871
563.315	-20.30902
563.521	47.27395
563.726	6.31457
563.931	-20.30902
564.136	18.60238
564.341	24.74629
564.546	-26.45293
564.751	-75.60418
564.956	34.98613
565.162	-28.5009
565.367	-1.8773
565.572	-12.11715
565.777	16.55441
565.982	-28.5009
566.187	55.46582
566.392	32.93816
566.597	41.13004
566.802	30.8902
567.007	-63.31637
567.212	-10.06918
567.417	55.46582
567.622	-67.4123
567.827	0.17066
568.031	2.21863
568.236	-34.6448
568.441	8.36254
568.646	-34.6448
568.851	-26.45293
569.056	-32.59684
569.261	10.41051
569.466	12.45848
569.67	24.74629
569.875	4.2666
570.08	-26.45293
570.285	-10.06918
570.49	-59.22043
570.694	-34.6448
570.899	6.31457
571.104	-85.84402
571.309	16.55441
571.513	-12.11715
571.718	22.69832
571.923	-16.21309
572.128	-22.35699
572.332	-8.02121
572.537	-48.98059
572.742	-24.40496
572.946	-20.30902
573.151	71.84957
573.355	-75.60418
573.56	-1.8773
573.765	2.21863
573.969	30.8902
574.174	-18.26105
574.378	-18.26105
574.583	4.2666
574.788	-26.45293
574.992	-3.92527
575.197	-12.11715
575.401	-32.59684
575.606	65.70566
575.81	-30.54887
576.015	69.8016
576.219	32.93816
576.424	41.13004
576.628	-10.06918
576.832	-48.98059
577.037	26.79426
577.241	16.55441
577.446	-44.88465
577.65	43.17801
577.854	-51.02855
578.059	47.27395
578.263	-5.97324
578.467	12.45848
578.672	8.36254
578.876	-10.06918
579.08	51.36988
579.285	22.69832
579.489	14.50645
579.693	-14.16512
579.898	20.65035
580.102	-14.16512
580.306	0.17066
580.51	-8.02121
580.715	24.74629
580.919	-57.17246
581.123	-69.46027
581.327	8.36254
581.531	-3.92527
581.735	-42.83668
581.94	6.31457
582.144	-8.02121
582.348	14.50645
582.552	37.0341
582.756	-3.92527
582.96	-10.06918
583.164	4.2666
583.368	-42.83668
583.572	-42.83668
583.776	-12.11715
583.98	-8.02121
584.185	30.8902
584.389	34.98613
584.593	-16.21309
584.797	-59.22043
585	-24.40496
585.204	55.46582
585.408	-22.35699
585.612	-91.98793
585.816	0.17066
586.02	-91.98793
586.224	47.27395
586.428	2.21863
586.632	4.2666
586.836	-1.8773
587.04	-8.02121
587.244	65.70566
587.447	39.08207
587.651	0.17066
587.855	-51.02855
588.059	-22.35699
588.263	63.6577
588.466	-53.07652
588.67	-73.55621
588.874	67.75363
589.078	-48.98059
589.281	-10.06918
589.485	-3.92527
589.689	4.2666
589.893	4.2666
590.096	-75.60418
590.3	24.74629
590.504	4.2666
590.707	4.2666
590.911	8.36254
591.115	49.32191
591.318	-106.32371
591.522	53.41785
591.725	-12.11715
591.929	-44.88465
592.133	30.8902
592.336	84.13738
592.54	-10.06918
592.743	16.55441
592.947	0.17066
593.15	80.04145
593.354	47.27395
593.557	4.2666
593.761	-77.65215
593.964	2.21863
594.168	30.8902
594.371	18.60238
594.575	-59.22043
594.778	-65.36434
594.981	-22.35699
595.185	-28.5009
595.388	14.50645
595.592	32.93816
595.795	-46.93262
595.998	-14.16512
596.202	77.99348
596.405	26.79426
596.608	-20.30902
596.812	-5.97324
597.015	32.93816
597.218	22.69832
597.421	26.79426
597.625	90.28129
597.828	75.94551
598.031	22.69832
598.234	-16.21309
598.438	-28.5009
598.641	-14.16512
598.844	24.74629
599.047	-94.0359
599.25	8.36254
599.453	-51.02855
599.657	26.79426
599.86	16.55441
600.063	-36.69277
600.266	37.0341
600.469	-14.16512
600.672	-14.16512
600.875	41.13004
601.078	34.98613
601.281	82.08941
601.484	41.13004
601.687	6.31457
601.89	12.45848
602.093	2.21863
602.296	22.69832
602.499	-46.93262
602.702	26.79426
602.905	6.31457
603.108	-36.69277
603.311	32.93816
603.514	-32.59684
603.717	8.36254
603.92	10.41051
604.123	59.56176
604.326	-73.55621
604.529	-28.5009
604.731	69.8016
604.934	39.08207
605.137	-65.36434
605.34	-46.93262
605.543	49.32191
605.745	20.65035
605.948	63.6577
606.151	16.55441
606.354	-20.30902
606.557	16.55441
606.759	12.45848
606.962	-32.59684
607.165	-8.02121
607.367	71.84957
607.57	-30.54887
607.773	41.13004
607.975	-51.02855
608.178	28.84223
608.381	28.84223
608.583	-14.16512
608.786	57.51379
608.989	-1.8773
609.191	-57.17246
609.394	2.21863
609.596	-73.55621
609.799	-20.30902
610.001	-3.92527
610.204	-20.30902
610.406	0.17066
610.609	-75.60418
610.811	-42.83668
611.014	-14.16512
611.216	-10.06918
611.419	51.36988
611.621	67.75363
611.824	-67.4123
612.026	-46.93262
612.229	16.55441
612.431	24.74629
612.633	-36.69277
612.836	14.50645
613.038	8.36254
613.24	10.41051
613.443	37.0341
613.645	-14.16512
613.847	-44.88465
614.05	-10.06918
614.252	24.74629
614.454	-8.02121
614.657	-38.74074
614.859	71.84957
615.061	57.51379
615.263	-3.92527
615.466	-46.93262
615.668	-28.5009
615.87	30.8902
616.072	2.21863
616.274	-38.74074
616.476	-96.08387
616.679	-10.06918
616.881	-28.5009
617.083	4.2666
617.285	-18.26105
617.487	16.55441
617.689	12.45848
617.891	43.17801
618.093	2.21863
618.295	-20.30902
618.497	2.21863
618.699	26.79426
618.901	22.69832
619.103	10.41051
619.305	28.84223
619.507	20.65035
619.709	104.61707
619.911	6.31457
620.113	-51.02855
620.315	-61.2684
620.517	-12.11715
620.719	-36.69277
620.921	-22.35699
621.123	28.84223
621.325	20.65035
621.527	-48.98059
621.728	-28.5009
621.93	37.0341
622.132	59.56176
622.334	4.2666
622.536	6.31457
622.737	12.45848
622.939	16.55441
623.141	16.55441
623.343	28.84223
623.544	41.13004
623.746	2.21863
623.948	8.36254
624.15	51.36988
624.351	-65.36434
624.553	-8.02121
624.755	51.36988
624.956	37.0341
625.158	22.69832
625.36	-36.69277
625.561	14.50645
625.763	22.69832
625.964	16.55441
626.166	2.21863
626.367	-67.4123
626.569	12.45848
626.771	37.0341
626.972	-34.6448
627.174	2.21863
627.375	20.65035
627.577	26.79426
627.778	32.93816
627.98	-32.59684
628.181	-26.45293
628.382	-46.93262
628.584	2.21863
628.785	77.99348
628.987	-18.26105
629.188	-1.8773
629.39	-16.21309
629.591	0.17066
629.792	-40.78871
629.994	53.41785
630.195	-18.26105
630.396	47.27395
630.598	22.69832
630.799	82.08941
631	106.66504
631.201	-8.02121
631.403	-3.92527
631.604	-16.21309
631.805	-98.13184
632.006	4.2666
632.208	-46.93262
632.409	-8.02121
632.61	4.2666
632.811	-18.26105
633.012	34.98613
633.214	6.31457
633.415	12.45848
633.616	-8.02121
633.817	0.17066
634.018	2039.94754
634.219	12871.65426
634.42	32304.82973
634.621	37467.75895
634.822	51164.57395
635.023	50836.89895
635.224	34623.13035
635.425	23490.37223
635.626	12120.04973
635.827	7876.65848
636.028	3760.24129
636.229	1368.21379
636.43	358.5652
636.631	127.14473
636.832	34.98613
637.033	22.69832
637.234	86.18535
637.435	-38.74074
637.636	8.36254
637.837	32.93816
638.037	69.8016
638.238	-57.17246
638.439	-10.06918
638.64	-32.59684
638.841	92.32926
639.042	22.69832
639.242	34.98613
639.443	-8.02121
639.644	41.13004
639.845	-40.78871
640.045	-10.06918
640.246	-8.02121
640.447	94.37723
640.648	24.74629
640.848	-26.45293
641.049	-53.07652
641.25	-26.45293
641.45	10.41051
641.651	-63.31637
641.851	-40.78871
642.052	45.22598
642.253	-14.16512
642.453	73.89754
642.654	-18.26105
642.854	43.17801
643.055	-44.88465
643.255	41.13004
643.456	20.65035
643.656	2.21863
643.857	61.60973
644.057	-16.21309
644.258	-16.21309
644.458	12.45848
644.659	-18.26105
644.859	22.69832
645.06	-14.16512
645.26	20.65035
645.46	24.74629
645.661	22.69832
645.861	-20.30902
646.062	-20.30902
646.262	51.36988
646.462	-44.88465
646.663	-38.74074
646.863	-149.33105
647.063	-8.02121
647.263	28.84223
647.464	-20.30902
647.664	69.8016
647.864	49.32191
648.064	-28.5009
648.265	32.93816
648.465	8.36254
648.665	-20.30902
648.865	51.36988
649.065	12.45848
649.266	-51.02855
649.466	-1.8773
649.666	12.45848
649.866	32.93816
650.066	12.45848
650.266	-1.8773
650.466	-61.2684
650.666	88.23332
650.866	55.46582
651.067	-1.8773
651.267	82.08941
651.467	28.84223
651.667	-85.84402
651.867	-22.35699
652.067	-26.45293
652.267	10.41051
652.466	-3.92527
652.666	69.8016
652.866	-3.92527
653.066	20.65035
653.266	-5.97324
653.466	-3.92527
653.666	18.60238
653.866	0.17066
654.066	24.74629
654.266	43.17801
654.465	16.55441
654.665	-85.84402
654.865	16.55441
655.065	-3.92527
655.265	-55.12449
655.464	-32.59684
655.664	-24.40496
655.864	-16.21309
656.064	-44.88465
656.263	-57.17246
656.463	26.79426
656.663	-24.40496
656.862	-20.30902
657.062	18.60238
657.262	-48.98059
657.461	28.84223
657.661	32.93816
657.861	-53.07652
658.06	-5.97324
658.26	39.08207
658.459	-38.74074
658.659	0.17066
658.858	71.84957
659.058	-10.06918
659.258	41.13004
659.457	-44.88465
659.657	0.17066
659.856	22.69832
660.056	2.21863
660.255	-48.98059
660.454	-22.35699
660.654	0.17066
660.853	84.13738
661.053	-44.88465
661.252	-10.06918
661.452	-18.26105
661.651	28.84223
661.85	53.41785
662.05	22.69832
662.249	59.56176
662.448	-28.5009
662.648	28.84223
662.847	28.84223
663.046	47.27395
663.245	-10.06918
663.445	26.79426
663.644	20.65035
663.843	2.21863
664.042	26.79426
664.242	-67.4123
664.441	12.45848
664.64	55.46582
664.839	-30.54887
665.038	-30.54887
665.237	63.6577
665.437	22.69832
665.636	-10.06918
665.835	-32.59684
666.034	0.17066
666.233	45.22598
666.432	-26.45293
666.631	-28.5009
666.83	0.17066
667.029	106.66504
667.228	2.21863
667.427	-30.54887
667.626	-28.5009
667.825	28.84223
668.024	4.2666
668.223	59.56176
668.422	-14.16512
668.621	30.8902
668.82	104.61707
669.019	-44.88465
669.218	-3.92527
669.417	4.2666
669.615	39.08207
669.814	61.60973
670.013	67.75363
670.212	-77.65215
670.411	-1.8773
670.609	4.2666
670.808	55.46582
671.007	26.79426
671.206	26.79426
671.405	-8.02121
671.603	-22.35699
671.802	0.17066
672.001	0.17066
672.199	-36.69277
672.398	14.50645
672.597	-16.21309
672.795	57.51379
672.994	47.27395
673.193	16.55441
673.391	51.36988
673.59	22.69832
673.789	45.22598
673.987	-36.69277
674.186	18.60238
674.384	51.36988
674.583	-10.06918
674.781	4.2666
674.98	-3.92527
675.178	69.8016
675.377	10.41051
675.575	67.75363
675.774	84.13738
675.972	2.21863
676.171	14.50645
676.369	28.84223
676.567	71.84957
676.766	34.98613
676.964	28.84223
677.163	-14.16512
677.361	-55.12449
677.559	4.2666
677.758	-26.45293
677.956	-20.30902
678.154	22.69832
678.353	45.22598
678.551	12.45848
678.749	2.21863
678.947	-8.02121
679.146	-44.88465
679.344	-3.92527
679.542	-12.11715
679.74	0.17066
679.938	4.2666
680.137	37.0341
680.335	-20.30902
680.533	-10.06918
680.731	34.98613
680.929	22.69832
681.127	75.94551
681.325	2.21863
681.523	4.2666
681.721	-26.45293
681.92	6.31457
682.118	-24.40496
682.316	-32.59684
682.514	-36.69277
682.712	0.17066
682.91	34.98613
683.108	6.31457
683.306	-87.89199
683.504	-16.21309
683.701	6.31457
683.899	12.45848
684.097	-14.16512
684.295	69.8016
684.493	16.55441
684.691	12.45848
684.889	69.8016
685.087	37.0341
685.284	8.36254
685.482	4.2666
685.68	-14.16512
685.878	65.70566
686.076	12.45848
686.273	98.47316
686.471	-1.8773
686.669	18.60238
686.867	47.27395
687.064	84.13738
687.262	4.2666
687.46	0.17066
687.657	16.55441
687.855	-30.54887
688.053	12.45848
688.25	49.32191
688.448	0.17066
688.646	-24.40496
688.843	28.84223
689.041	6.31457
689.238	2.21863
689.436	47.27395
689.633	-16.21309
689.831	-40.78871
690.029	-16.21309
690.226	51.36988
690.424	4.2666
690.621	2.21863
690.818	53.41785
691.016	14.50645
691.213	-32.59684
691.411	-12.11715
691.608	-22.35699
691.806	61.60973
692.003	45.22598
692.2	24.74629
692.398	16.55441
692.595	6.31457
692.792	-53.07652
692.99	26.79426
693.187	-1.8773
693.384	-14.16512
693.582	30.8902
693.779	-55.12449
693.976	-5.97324
694.173	-1.8773
694.371	-22.35699
694.568	26.79426
694.765	-24.40496
694.962	26.79426
695.159	47.27395
695.356	-61.2684
695.554	-10.06918
695.751	51.36988
695.948	-59.22043
696.145	-30.54887
696.342	-1.8773
696.539	57.51379
696.736	37.0341
696.933	18.60238
697.13	-16.21309
697.327	37.0341
697.524	20.65035
697.721	-57.17246
697.918	20.65035
698.115	71.84957
698.312	37.0341
698.509	2.21863
698.706	-10.06918
698.903	6.31457
699.1	84.13738
699.297	26.79426
699.494	-34.6448
699.691	63.6577
699.887	-14.16512
700.084	41.13004
700.281	16.55441
700.478	-48.98059
700.675	-96.08387
700.871	-71.50824
701.068	-10.06918
701.265	-24.40496
701.462	32.93816
701.658	0.17066
701.855	-34.6448
702.052	6.31457
702.249	63.6577
702.445	-10.06918
702.642	18.60238
702.839	-73.55621
703.035	-1.8773
703.232	-36.69277
703.428	-85.84402
703.625	18.60238
703.822	4.2666
704.018	-8.02121
704.215	57.51379
704.411	47.27395
704.608	39.08207
704.804	-14.16512
705.001	-34.6448
705.197	32.93816
705.394	10.41051
705.59	-16.21309
705.787	20.65035
705.983	8.36254
706.18	28.84223
706.376	16.55441
706.572	-65.36434
706.769	43.17801
706.965	-44.88465
707.161	12.45848
707.358	30.8902
707.554	20.65035
707.75	49.32191
707.947	57.51379
708.143	34.98613
708.339	18.60238
708.536	39.08207
708.732	-3.92527
708.928	12.45848
709.124	90.28129
709.32	8.36254
709.517	65.70566
709.713	55.46582
709.909	-30.54887
710.105	8.36254
710.301	12.45848
710.497	-32.59684
710.693	4.2666
710.89	51.36988
711.086	18.60238
711.282	-65.36434
711.478	-40.78871
711.674	12.45848
711.87	12.45848
712.066	75.94551
712.262	20.65035
712.458	-10.06918
712.654	-1.8773
712.85	-40.78871
713.046	59.56176
713.242	47.27395
713.438	77.99348
713.633	28.84223
713.829	-20.30902
714.025	-22.35699
714.221	-65.36434
714.417	-18.26105
714.613	49.32191
714.809	-26.45293
715.004	14.50645
715.2	20.65035
715.396	61.60973
715.592	-10.06918
715.788	-34.6448
715.983	4.2666
716.179	0.17066
716.375	34.98613
716.57	18.60238
716.766	39.08207
716.962	47.27395
717.157	18.60238
717.353	51.36988
717.549	32.93816
717.744	-28.5009
717.94	14.50645
718.136	-44.88465
718.331	-20.30902
718.527	24.74629
718.722	-14.16512
718.918	-8.02121
719.113	-16.21309
719.309	26.79426
719.504	65.70566
719.7	32.93816
719.895	-55.12449
720.091	34.98613
720.286	-42.83668
720.482	71.84957
720.677	-36.69277
720.872	-16.21309
721.068	14.50645
721.263	43.17801
721.458	86.18535
721.654	-48.98059
721.849	39.08207
722.044	22.69832
722.24	-3.92527
722.435	22.69832
722.63	4.2666
722.826	32.93816
723.021	43.17801
723.216	-75.60418
723.411	-22.35699
723.606	6.31457
723.802	14.50645
723.997	37.0341
724.192	63.6577
724.387	-38.74074
724.582	65.70566
724.777	-10.06918
724.973	16.55441
725.168	47.27395
725.363	-53.07652
725.558	-28.5009
725.753	18.60238
725.948	67.75363
726.143	24.74629
726.338	-28.5009
726.533	-61.2684
726.728	-67.4123
726.923	-18.26105
727.118	-32.59684
727.313	47.27395
727.508	-1.8773
727.703	30.8902
727.897	16.55441
728.092	-26.45293
728.287	-20.30902
728.482	-55.12449
728.677	49.32191
728.872	12.45848
729.067	-81.74809
729.261	-46.93262
729.456	-14.16512
729.651	4.2666
729.846	20.65035
730.04	131.24066
730.235	32.93816
730.43	30.8902
730.625	8.36254
730.819	-1.8773
731.014	32.93816
731.209	-20.30902
731.403	-14.16512
731.598	20.65035
731.793	26.79426
731.987	45.22598
732.182	26.79426
732.376	-42.83668
732.571	-14.16512
732.765	-5.97324
732.96	0.17066
733.155	16.55441
733.349	57.51379
733.544	12.45848
733.738	39.08207
733.932	-14.16512
734.127	-28.5009
734.321	28.84223
734.516	30.8902
734.71	-36.69277
734.905	-30.54887
735.099	0.17066
735.293	8.36254
735.488	-42.83668
735.682	2.21863
735.876	32.93816
736.071	-36.69277
736.265	-48.98059
736.459	24.74629
736.654	53.41785
736.848	55.46582
737.042	-61.2684
737.236	-46.93262
737.431	12.45848
737.625	-46.93262
737.819	24.74629
738.013	49.32191
738.207	4.2666
738.401	-20.30902
738.596	-12.11715
738.79	14.50645
738.984	-8.02121
739.178	-18.26105
739.372	-91.98793
739.566	18.60238
739.76	6.31457
739.954	-8.02121
740.148	-51.02855
740.342	-1.8773
740.536	-34.6448
740.73	10.41051
740.924	-22.35699
741.118	-12.11715
741.312	-34.6448
741.506	12.45848
741.7	-81.74809
741.894	-69.46027
742.087	6.31457
742.281	0.17066
742.475	26.79426
742.669	0.17066
742.863	2.21863
743.057	-3.92527
743.25	-44.88465
743.444	18.60238
743.638	-34.6448
743.832	22.69832
744.025	26.79426
744.219	-5.97324
744.413	32.93816
744.607	24.74629
744.8	-12.11715
744.994	47.27395
745.188	-12.11715
745.381	16.55441
745.575	-16.21309
745.768	65.70566
745.962	-40.78871
746.156	8.36254
746.349	-1.8773
746.543	-34.6448
746.736	-44.88465
746.93	77.99348
747.123	16.55441
747.317	-32.59684
747.51	0.17066
747.704	-36.69277
747.897	51.36988
748.091	6.31457
748.284	-12.11715
748.478	49.32191
748.671	-71.50824
748.864	-26.45293
749.058	-8.02121
749.251	41.13004
749.444	0.17066
749.638	10.41051
749.831	-32.59684
750.024	53.41785
750.218	-40.78871
750.411	34.98613
750.604	-30.54887
750.797	-5.97324
750.991	-14.16512
751.184	-65.36434
751.377	-55.12449
751.57	49.32191
751.763	-30.54887
751.956	-3.92527
752.15	-10.06918
752.343	49.32191
752.536	8.36254
752.729	12.45848
752.922	32.93816
753.115	24.74629
753.308	4.2666
753.501	8.36254
753.694	10.41051
753.887	-3.92527
754.08	10.41051
754.273	26.79426
754.466	-22.35699
754.659	-18.26105
754.852	-42.83668
755.045	-51.02855
755.238	20.65035
755.431	-1.8773
755.624	-26.45293
755.817	32.93816
756.009	-71.50824
756.202	2.21863
756.395	-28.5009
756.588	-1.8773
756.781	-18.26105
756.973	18.60238
757.166	45.22598
757.359	0.17066
757.552	-5.97324
757.744	51.36988
757.937	-48.98059
758.13	-34.6448
758.322	-24.40496
758.515	-12.11715
758.708	20.65035
758.9	-51.02855
759.093	-30.54887
759.286	-5.97324
759.478	-51.02855
759.671	80.04145
759.863	-24.40496
760.056	-12.11715
760.248	47.27395
760.441	-24.40496
760.633	-36.69277
760.826	-24.40496
761.018	-32.59684
761.211	4.2666
761.403	32.93816
761.596	26.79426
761.788	-5.97324
761.981	-46.93262
762.173	26.79426
762.365	-10.06918
762.558	92.32926
762.75	28.84223
762.942	-32.59684
763.135	49.32191
763.327	-20.30902
763.519	41.13004
763.712	18.60238
763.904	18.60238
764.096	-36.69277
764.288	-14.16512
764.481	-32.59684
764.673	26.79426
764.865	-75.60418
765.057	2.21863
765.249	14.50645
765.441	-14.16512
765.634	-69.46027
765.826	39.08207
766.018	-3.92527
766.21	-28.5009
766.402	26.79426
766.594	-53.07652
766.786	-10.06918
766.978	28.84223
767.17	-71.50824
767.362	24.74629
767.554	47.27395
767.746	-20.30902
767.938	2.21863
768.13	16.55441
768.322	-18.26105
768.514	-10.06918
768.706	49.32191
768.898	30.8902
769.089	-61.2684
769.281	-22.35699
769.473	49.32191
769.665	-3.92527
769.857	12.45848
770.049	-28.5009
770.24	4.2666
770.432	-59.22043
770.624	39.08207
770.816	57.51379
771.007	65.70566
771.199	-10.06918
771.391	-14.16512
771.582	39.08207
771.774	-57.17246
771.966	37.0341
772.157	-38.74074
772.349	-28.5009
772.541	14.50645
772.732	10.41051
772.924	-8.02121
773.115	20.65035
773.307	30.8902
773.498	0.17066
773.69	24.74629
773.881	-28.5009
774.073	30.8902
774.264	12.45848
774.456	-30.54887
774.647	6.31457
774.839	2.21863
775.03	-12.11715
775.221	-53.07652
775.413	18.60238
775.604	0.17066
775.796	-20.30902
775.987	-28.5009
776.178	-18.26105
776.37	34.98613
776.561	-22.35699
776.752	41.13004
776.943	-8.02121
777.135	2.21863
777.326	24.74629
777.517	-67.4123
777.708	59.56176
777.899	2.21863
778.091	22.69832
778.282	-16.21309
778.473	10.41051
778.664	-51.02855
778.855	-40.78871
779.046	-22.35699
779.237	-8.02121
779.428	43.17801
779.62	-14.16512
779.811	-1.8773
780.002	-22.35699
780.193	-28.5009
780.384	-16.21309
780.575	6.31457
780.766	-18.26105
780.957	49.32191
781.148	-16.21309
781.338	-3.92527
781.529	-20.30902
781.72	-69.46027
781.911	-67.4123
782.102	4.2666
782.293	61.60973
782.484	49.32191
782.674	-5.97324
782.865	0.17066
783.056	10.41051
783.247	-20.30902
783.438	-30.54887
783.628	-22.35699
783.819	-10.06918
784.01	-42.83668
784.201	-18.26105
784.391	20.65035
784.582	39.08207
784.773	-67.4123
784.963	18.60238
785.154	0.17066
785.344	-28.5009
785.535	6.31457
785.726	77.99348
785.916	2.21863
786.107	-1.8773
786.297	24.74629
786.488	-30.54887
786.678	34.98613
786.869	43.17801
787.059	0.17066
787.25	-46.93262
787.44	34.98613
787.631	34.98613
787.821	55.46582
788.012	39.08207
788.202	-36.69277
788.392	-22.35699
788.583	32.93816
788.773	14.50645
788.963	-24.40496
789.154	59.56176
789.344	-8.02121
789.534	-5.97324
789.724	24.74629
789.915	18.60238
790.105	-8.02121
790.295	16.55441
790.485	10.41051
790.676	20.65035
790.866	65.70566
791.056	65.70566
791.246	26.79426
791.436	20.65035
791.626	-18.26105
791.816	20.65035
792.007	57.51379
792.197	37.0341
792.387	-30.54887
792.577	-32.59684
792.767	2.21863
792.957	4.2666
793.147	-22.35699
793.337	4.2666
793.527	-94.0359
793.717	39.08207
793.907	-51.02855
794.097	-44.88465
794.287	2.21863
794.476	2.21863
794.666	-51.02855
794.856	37.0341
795.046	4.2666
795.236	4.2666
795.426	0.17066
795.615	53.41785
795.805	32.93816
795.995	69.8016
796.185	20.65035
796.375	67.75363
796.564	32.93816
796.754	37.0341
796.944	59.56176
797.133	-63.31637
797.323	12.45848
797.513	71.84957
797.702	8.36254
797.892	-51.02855
798.082	-16.21309
798.271	-44.88465
798.461	41.13004
798.65	53.41785
798.84	0.17066
799.029	67.75363
799.219	-24.40496
799.408	-12.11715
799.598	30.8902
799.787	-34.6448
799.977	-24.40496
800.166	53.41785
800.356	0.17066
800.545	32.93816
800.735	14.50645
800.924	4.2666
801.113	73.89754
801.303	-26.45293
801.492	20.65035
801.681	-8.02121
801.871	-59.22043
802.06	2.21863
802.249	4.2666
802.438	-28.5009
802.628	-32.59684
802.817	8.36254
803.006	-40.78871
803.195	20.65035
803.385	-51.02855
803.574	14.50645
803.763	-14.16512
803.952	61.60973
804.141	71.84957
804.33	4.2666
804.519	-3.92527
804.708	-24.40496
804.897	32.93816
805.087	16.55441
805.276	-34.6448
805.465	75.94551
805.654	0.17066
805.843	-5.97324
806.032	-5.97324
806.22	28.84223
806.409	-81.74809
806.598	-26.45293
806.787	-14.16512
806.976	-26.45293
807.165	-24.40496
807.354	-67.4123
807.543	28.84223
807.732	-14.16512
807.92	-5.97324
808.109	-20.30902
808.298	2.21863
808.487	-20.30902
808.676	-12.11715
808.864	8.36254
809.053	6.31457
809.242	-5.97324
809.43	67.75363
809.619	-8.02121
809.808	8.36254
809.996	-8.02121
810.185	-12.11715
810.374	10.41051
810.562	-1.8773
810.751	51.36988
810.939	-16.21309
811.128	-16.21309
811.317	-16.21309
811.505	26.79426
811.694	16.55441
811.882	49.32191
812.071	41.13004
812.259	14.50645
812.448	77.99348
812.636	-28.5009
812.824	8.36254
813.013	-14.16512
813.201	18.60238
813.39	12.45848
813.578	34.98613
813.766	-12.11715
813.955	-16.21309
814.143	-24.40496
814.331	34.98613
814.519	14.50645
814.708	-12.11715
814.896	-18.26105
815.084	2.21863
815.272	2.21863
815.461	-73.55621
815.649	24.74629
815.837	0.17066
816.025	6.31457
816.213	41.13004
816.401	-57.17246
816.59	16.55441
816.778	-30.54887
816.966	20.65035
817.154	-59.22043
817.342	71.84957
817.53	41.13004
817.718	-48.98059
817.906	-8.02121
818.094	41.13004
818.282	10.41051
818.47	-14.16512
818.658	61.60973
818.846	39.08207
819.034	34.98613
819.222	-8.02121
819.409	6.31457
819.597	16.55441
819.785	-63.31637
819.973	49.32191
820.161	-1.8773
820.349	-1.8773
820.536	8.36254
820.724	-16.21309
820.912	-71.50824
821.1	-12.11715
821.287	-69.46027
821.475	14.50645
821.663	18.60238
821.85	-10.06918
822.038	8.36254
822.226	2.21863
822.413	10.41051
822.601	59.56176
822.789	-28.5009
822.976	12.45848
823.164	45.22598
823.351	51.36988
823.539	4.2666
823.726	71.84957
823.914	-32.59684
824.101	67.75363
824.289	37.0341
824.476	8.36254
824.664	-1.8773
824.851	0.17066
825.039	12.45848
825.226	57.51379
825.413	22.69832
825.601	-18.26105
825.788	-12.11715
825.976	-73.55621
826.163	-51.02855
826.35	-22.35699
826.537	0.17066
826.725	0.17066
826.912	94.37723
827.099	71.84957
827.286	-22.35699
827.474	-1.8773
827.661	-16.21309
827.848	-5.97324
828.035	8.36254
828.222	10.41051
828.409	16.55441
828.597	20.65035
828.784	32.93816
828.971	4.2666
829.158	-5.97324
829.345	-8.02121
829.532	-51.02855
829.719	-8.02121
829.906	-5.97324
830.093	53.41785
830.28	26.79426
830.467	-32.59684
830.654	-28.5009
830.841	-5.97324
831.028	-16.21309
831.215	-3.92527
831.402	-32.59684
831.588	-26.45293
831.775	53.41785
831.962	16.55441
832.149	4.2666
832.336	24.74629
832.522	-3.92527
832.709	-57.17246
832.896	-24.40496
833.083	30.8902
833.269	30.8902
833.456	59.56176
833.643	-20.30902
833.83	12.45848
834.016	-28.5009
834.203	45.22598
834.39	0.17066
834.576	-57.17246
834.763	-20.30902
834.949	-44.88465
835.136	32.93816
835.322	112.80895
835.509	-67.4123
835.695	2.21863
835.882	0.17066
836.068	20.65035
836.255	-30.54887
836.441	10.41051
836.628	-106.32371
836.814	6.31457
837.001	24.74629
837.187	-22.35699
837.373	32.93816
837.56	-8.02121
837.746	53.41785
837.933	-12.11715
838.119	49.32191
838.305	-53.07652
838.491	24.74629
838.678	-16.21309
838.864	26.79426
839.05	-3.92527
839.236	22.69832
839.423	49.32191
839.609	32.93816
839.795	20.65035
839.981	-46.93262
840.167	-34.6448
840.353	-46.93262
840.54	-38.74074
840.726	4.2666
840.912	-36.69277
841.098	47.27395
841.284	55.46582
841.47	8.36254
841.656	-51.02855
841.842	-16.21309
842.028	-24.40496
842.214	86.18535
842.4	20.65035
842.586	67.75363
842.772	26.79426
842.958	-26.45293
843.143	37.0341
843.329	30.8902
843.515	8.36254
843.701	2.21863
843.887	0.17066
844.073	41.13004
844.258	-61.2684
844.444	69.8016
844.63	18.60238
844.816	41.13004
845.001	-46.93262
845.187	32.93816
845.373	26.79426
845.559	10.41051
845.744	-12.11715
845.93	-44.88465
846.115	-3.92527
846.301	-8.02121
846.487	-63.31637
846.672	14.50645
846.858	-16.21309
847.043	-79.70012
847.229	-26.45293
847.414	39.08207
847.6	-53.07652
847.785	-44.88465
847.971	0.17066
848.156	51.36988
848.342	71.84957
848.527	34.98613
848.713	-53.07652
848.898	-12.11715
849.083	-10.06918
849.269	8.36254
849.454	45.22598
849.639	16.55441
849.825	-16.21309
850.01	43.17801
850.195	28.84223
850.381	-30.54887
850.566	-28.5009
850.751	-5.97324
850.936	2.21863
851.122	-22.35699
851.307	45.22598
851.492	18.60238
851.677	14.50645
851.862	67.75363
852.047	-10.06918
852.232	73.89754
852.417	69.8016
852.603	45.22598
852.788	-26.45293
852.973	-10.06918
853.158	39.08207
853.343	-40.78871
853.528	4.2666
853.713	-46.93262
853.898	-44.88465
854.083	2.21863
854.267	24.74629
854.452	-26.45293
854.637	-5.97324
854.822	-8.02121
855.007	28.84223
855.192	14.50645
855.377	-42.83668
855.562	-20.30902
855.746	-44.88465
855.931	-10.06918
856.116	-44.88465
856.301	8.36254
856.485	61.60973
856.67	86.18535
856.855	10.41051
857.039	20.65035
857.224	-12.11715
857.409	34.98613
857.593	14.50645
857.778	-18.26105
857.963	0.17066
858.147	-24.40496
858.332	-55.12449
858.516	-44.88465
858.701	4.2666
858.885	-3.92527
859.07	-14.16512
859.254	67.75363
859.439	-48.98059
859.623	16.55441
859.808	-16.21309
859.992	-32.59684
860.177	-83.79605
860.361	-3.92527
860.545	-1.8773
860.73	-1.8773
860.914	-3.92527
861.098	2.21863
861.283	-24.40496
861.467	-20.30902
861.651	-20.30902
861.836	53.41785
862.02	-36.69277
862.204	-3.92527
862.388	-73.55621
862.572	-20.30902
862.757	49.32191
862.941	32.93816
863.125	20.65035
863.309	6.31457
863.493	106.66504
863.677	37.0341
863.861	-30.54887
864.045	-48.98059
864.23	-34.6448
864.414	-1.8773
864.598	8.36254
864.782	0.17066
864.966	20.65035
865.15	37.0341
865.334	-14.16512
865.517	30.8902
865.701	37.0341
865.885	-34.6448
866.069	-32.59684
866.253	-8.02121
866.437	18.60238
866.621	-48.98059
866.805	32.93816
866.988	90.28129
867.172	22.69832
867.356	-46.93262
867.54	10.41051
867.723	30.8902
867.907	26.79426
868.091	61.60973
868.275	-44.88465
868.458	18.60238
868.642	-20.30902
868.826	8.36254
869.009	41.13004
869.193	39.08207
869.376	6.31457
869.56	2.21863
869.744	-8.02121
869.927	-38.74074
870.111	47.27395
870.294	-5.97324
870.478	-44.88465
870.661	26.79426
870.845	39.08207
871.028	18.60238
871.211	-30.54887
871.395	-57.17246
871.578	30.8902
871.762	-48.98059
871.945	53.41785
872.128	-32.59684
872.312	32.93816
872.495	8.36254
872.678	-44.88465
872.862	39.08207
873.045	8.36254
873.228	-5.97324
873.411	24.74629
873.595	-55.12449
873.778	12.45848
873.961	28.84223
874.144	20.65035
874.327	49.32191
874.51	16.55441
874.694	26.79426
874.877	-26.45293
875.06	39.08207
875.243	20.65035
875.426	16.55441
875.609	-10.06918
875.792	-14.16512
875.975	-38.74074
876.158	-1.8773
876.341	10.41051
876.524	-34.6448
876.707	39.08207
876.89	-34.6448
877.073	39.08207
877.255	16.55441
877.438	-71.50824
877.621	51.36988
877.804	-24.40496
877.987	14.50645
878.17	-3.92527
878.352	0.17066
878.535	22.69832
878.718	8.36254
878.901	-30.54887
879.083	2.21863
879.266	0.17066
879.449	-51.02855
879.631	28.84223
879.814	-12.11715
879.997	-20.30902
880.179	20.65035
880.362	-38.74074
880.545	-57.17246
880.727	24.74629
880.91	-34.6448
881.092	45.22598
881.275	-3.92527
881.457	-20.30902
881.64	28.84223
881.822	22.69832
882.005	-34.6448
882.187	18.60238
882.37	49.32191
882.552	4.2666
882.734	65.70566
882.917	20.65035
883.099	32.93816
883.281	28.84223
883.464	-14.16512
883.646	-28.5009
883.828	6.31457
884.011	-73.55621
884.193	84.13738
884.375	24.74629
884.557	-3.92527
884.74	28.84223
884.922	94.37723
885.104	-38.74074
885.286	108.71301
885.468	-24.40496
885.65	-12.11715
885.832	6.31457
886.015	2.21863
886.197	22.69832
886.379	12.45848
886.561	-5.97324
886.743	22.69832
886.925	-22.35699
887.107	51.36988
887.289	-28.5009
887.471	22.69832
887.653	6.31457
887.835	-24.40496
888.016	2.21863
888.198	22.69832
888.38	-18.26105
888.562	-8.02121
888.744	34.98613
888.926	2.21863
889.108	-22.35699
889.289	-3.92527
889.471	28.84223
889.653	-24.40496
889.835	22.69832
890.016	80.04145
890.198	45.22598
890.38	2.21863
890.561	-1.8773
890.743	-24.40496
890.925	67.75363
891.106	-5.97324
891.288	-8.02121
891.469	-14.16512
891.651	-36.69277
891.833	12.45848
892.014	28.84223
892.196	67.75363
892.377	41.13004
892.559	14.50645
892.74	14.50645
892.922	12.45848
893.103	-14.16512
893.284	34.98613
893.466	14.50645
893.647	-18.26105
893.829	-1.8773
894.01	-51.02855
894.191	-67.4123
894.373	73.89754
894.554	30.8902
894.735	-3.92527
894.916	24.74629
895.098	-10.06918
895.279	-18.26105
895.46	45.22598
895.641	-22.35699
895.823	71.84957
896.004	-67.4123
896.185	-40.78871
896.366	-16.21309
896.547	-57.17246
896.728	0.17066
896.909	24.74629
897.09	14.50645
897.271	-10.06918
897.452	4.2666
897.633	-48.98059
897.814	-28.5009
897.995	28.84223
898.176	-14.16512
898.357	-14.16512
898.538	-14.16512
898.719	-12.11715
898.9	-16.21309
899.081	-30.54887
899.262	-24.40496
899.443	-40.78871
899.623	-14.16512
899.804	47.27395
899.985	16.55441
900.166	47.27395
900.347	-3.92527
900.527	-75.60418
900.708	-42.83668
900.889	-16.21309
901.07	-38.74074
901.25	-32.59684
901.431	-32.59684
901.611	45.22598
901.792	30.8902
901.973	71.84957
902.153	-55.12449
902.334	8.36254
902.514	-63.31637
902.695	-30.54887
902.876	24.74629
903.056	-20.30902
903.237	-79.70012
903.417	-5.97324
903.597	20.65035
903.778	-98.13184
903.958	-26.45293
904.139	37.0341
904.319	49.32191
904.499	96.4252
904.68	-26.45293
904.86	-28.5009
905.04	-20.30902
905.221	10.41051
905.401	-5.97324
905.581	34.98613
905.762	32.93816
905.942	6.31457
906.122	41.13004
906.302	26.79426
906.482	-8.02121
906.663	-20.30902
906.843	12.45848
907.023	12.45848
907.203	-40.78871
907.383	4.2666
907.563	-57.17246
907.743	18.60238
907.923	16.55441
908.103	34.98613
908.283	-42.83668
908.463	-24.40496
908.643	-38.74074
908.823	57.51379
909.003	-24.40496
909.183	-59.22043
909.363	6.31457
909.543	2.21863
909.723	16.55441
909.903	32.93816
910.082	-51.02855
910.262	30.8902
910.442	57.51379
910.622	10.41051
910.802	6.31457
910.981	2.21863
911.161	-8.02121
911.341	10.41051
911.521	18.60238
911.7	0.17066
911.88	61.60973
912.06	-48.98059
912.239	-8.02121
912.419	-36.69277
912.598	-40.78871
912.778	37.0341
912.958	12.45848
913.137	82.08941
913.317	-1.8773
913.496	55.46582
913.676	16.55441
913.855	-89.93996
914.035	8.36254
914.214	18.60238
914.393	-51.02855
914.573	43.17801
914.752	-5.97324
914.932	-14.16512
915.111	14.50645
915.29	-63.31637
915.47	47.27395
915.649	-42.83668
915.828	-38.74074
916.008	-12.11715
916.187	-10.06918
916.366	-63.31637
916.545	-24.40496
916.724	-14.16512
916.904	39.08207
917.083	45.22598
917.262	-8.02121
917.441	32.93816
917.62	-38.74074
917.799	39.08207
917.978	39.08207
918.158	-57.17246
918.337	-1.8773
918.516	4.2666
918.695	24.74629
918.874	-8.02121
919.053	-12.11715
919.232	20.65035
919.41	-14.16512
919.589	71.84957
919.768	22.69832
919.947	-32.59684
920.126	-53.07652
920.305	28.84223
920.484	98.47316
920.663	16.55441
920.841	10.41051
921.02	-42.83668
921.199	14.50645
921.378	47.27395
921.556	-24.40496
921.735	41.13004
921.914	24.74629
922.093	45.22598
922.271	-34.6448
922.45	-16.21309
922.629	4.2666
922.807	51.36988
922.986	-42.83668
923.164	8.36254
923.343	24.74629
923.521	41.13004
923.7	41.13004
923.878	53.41785
924.057	43.17801
924.235	-14.16512
924.414	65.70566
924.592	24.74629
924.771	-51.02855
924.949	-16.21309
925.128	37.0341
925.306	-46.93262
925.484	20.65035
925.663	24.74629
925.841	-10.06918
926.019	12.45848
926.198	4.2666
926.376	80.04145
926.554	-12.11715
926.732	-12.11715
926.91	69.8016
927.089	-24.40496
927.267	47.27395
927.445	-38.74074
927.623	12.45848
927.801	-32.59684
927.979	28.84223
928.158	28.84223
928.336	41.13004
928.514	-8.02121
928.692	2.21863
928.87	82.08941
929.048	20.65035
929.226	26.79426
929.404	8.36254
929.582	2.21863
929.76	24.74629
929.937	22.69832
930.115	32.93816
930.293	10.41051
930.471	12.45848
930.649	-51.02855
930.827	-14.16512
931.005	39.08207
931.182	10.41051
931.36	30.8902
931.538	-22.35699
931.716	20.65035
931.893	-12.11715
932.071	-59.22043
932.249	-8.02121
932.426	37.0341
932.604	20.65035
932.782	-34.6448
932.959	14.50645
933.137	-44.88465
933.315	12.45848
933.492	108.71301
933.67	-36.69277
933.847	14.50645
934.025	-32.59684
934.202	-5.97324
934.38	30.8902
934.557	20.65035
934.735	-3.92527
934.912	-34.6448
935.089	39.08207
935.267	8.36254
935.444	-3.92527
935.622	16.55441
935.799	22.69832
935.976	55.46582
936.154	-42.83668
936.331	-8.02121
936.508	26.79426
936.685	45.22598
936.863	28.84223
937.04	-1.8773
937.217	-8.02121
937.394	12.45848
937.571	-14.16512
937.748	37.0341
937.926	-8.02121
938.103	-36.69277
938.28	-57.17246
938.457	43.17801
938.634	12.45848
938.811	12.45848
938.988	12.45848
939.165	0.17066
939.342	6.31457
939.519	4.2666
939.696	22.69832
939.873	12.45848
940.05	-16.21309
940.227	18.60238
940.404	8.36254
940.58	-18.26105
940.757	-16.21309
940.934	-34.6448
941.111	20.65035
941.288	8.36254
941.464	6.31457
941.641	-32.59684
941.818	-5.97324
941.995	4.2666
942.171	28.84223
942.348	-24.40496
942.525	73.89754
942.701	-8.02121
942.878	-26.45293
943.055	-57.17246
943.231	41.13004
943.408	4.2666
943.584	-20.30902
943.761	8.36254
943.937	-20.30902
944.114	24.74629
944.29	34.98613
944.467	32.93816
944.643	61.60973
944.82	-8.02121
944.996	43.17801
945.173	80.04145
945.349	-20.30902
945.525	-20.30902
945.702	30.8902
945.878	8.36254
946.054	-24.40496
946.231	41.13004
946.407	12.45848
946.583	30.8902
946.759	-77.65215
946.936	10.41051
947.112	-18.26105
947.288	37.0341
947.464	20.65035
947.64	16.55441
947.816	-20.30902
947.992	53.41785
948.169	-10.06918
948.345	14.50645
948.521	6.31457
948.697	-48.98059
948.873	-3.92527
949.049	51.36988
949.225	39.08207
949.401	24.74629
949.577	-34.6448
949.753	-20.30902
949.929	63.6577
950.104	2.21863
950.28	6.31457
950.456	28.84223
950.632	-10.06918
950.808	10.41051
950.984	-71.50824
951.159	-46.93262
951.335	-42.83668
951.511	12.45848
951.687	4.2666
951.862	-8.02121
952.038	8.36254
952.214	-32.59684
952.39	-3.92527
952.565	28.84223
952.741	-24.40496
952.916	-26.45293
953.092	-14.16512
953.268	-14.16512
953.443	-34.6448
953.619	-30.54887
953.794	39.08207
953.97	55.46582
954.145	-34.6448
954.321	-14.16512
954.496	0.17066
954.672	-22.35699
954.847	-46.93262
955.022	39.08207
955.198	6.31457
955.373	-40.78871
955.548	-36.69277
955.724	-48.98059
955.899	-48.98059
956.074	47.27395
956.25	6.31457
956.425	18.60238
956.6	8.36254
956.775	-26.45293
956.951	22.69832
957.126	65.70566
957.301	26.79426
957.476	-75.60418
957.651	34.98613
957.826	12.45848
958.001	61.60973
958.176	14.50645
958.352	-5.97324
958.527	-1.8773
958.702	-69.46027
958.877	8.36254
959.052	-42.83668
959.227	-48.98059
959.401	-67.4123
959.576	51.36988
959.751	4.2666
959.926	6.31457
960.101	-8.02121
960.276	-1.8773
960.451	12.45848
960.626	12.45848
960.8	-10.06918
960.975	47.27395
961.15	47.27395
961.325	53.41785
961.499	-75.60418
961.674	26.79426
961.849	69.8016
962.023	-20.30902
962.198	-14.16512
962.373	-46.93262
962.547	30.8902
962.722	20.65035
962.897	2.21863
963.071	94.37723
963.246	-26.45293
963.42	16.55441
963.595	16.55441
963.769	4.2666
963.944	-10.06918
964.118	2.21863
964.293	-12.11715
964.467	0.17066
964.641	-1.8773
964.816	2.21863
964.99	-63.31637
965.165	2.21863
965.339	-12.11715
965.513	-26.45293
965.687	-26.45293
965.862	8.36254
966.036	-1.8773
966.21	16.55441
966.384	26.79426
966.559	30.8902
966.733	37.0341
966.907	16.55441
967.081	-73.55621
967.255	26.79426
967.429	-65.36434
967.604	-67.4123
967.778	0.17066
967.952	61.60973
968.126	-42.83668
968.3	0.17066
968.474	-38.74074
968.648	-24.40496
968.822	41.13004
968.996	-30.54887
969.17	10.41051
969.343	-38.74074
969.517	-22.35699
969.691	51.36988
969.865	-1.8773
970.039	43.17801
970.213	-12.11715
970.387	-28.5009
970.56	6.31457
970.734	-10.06918
970.908	-42.83668
971.082	24.74629
971.255	8.36254
971.429	-32.59684
971.603	43.17801
971.776	-12.11715
971.95	-26.45293
972.124	16.55441
972.297	-12.11715
972.471	12.45848
972.644	-1.8773
972.818	-10.06918
972.991	-44.88465
973.165	-48.98059
973.338	94.37723
973.512	-8.02121
973.685	14.50645
973.859	-24.40496
974.032	8.36254
974.206	2.21863
974.379	-65.36434
974.552	-46.93262
974.726	6.31457
974.899	20.65035
975.072	26.79426
975.246	8.36254
975.419	12.45848
975.592	-59.22043
975.765	-10.06918
975.939	24.74629
976.112	16.55441
976.285	24.74629
976.458	-1.8773
976.631	14.50645
976.804	20.65035
976.977	-48.98059
977.151	61.60973
977.324	-18.26105
977.497	-3.92527
977.67	4.2666
977.843	51.36988
978.016	-85.84402
978.189	10.41051
978.362	18.60238
978.535	-28.5009
978.707	4.2666
978.88	-48.98059
979.053	-16.21309
979.226	-22.35699
979.399	-36.69277
979.572	16.55441
979.745	26.79426
979.917	10.41051
980.09	8.36254
980.263	4.2666
980.436	18.60238
980.608	26.79426
980.781	14.50645
980.954	30.8902
981.126	4.2666
981.299	-63.31637
981.472	-30.54887
981.644	61.60973
981.817	4.2666
981.989	0.17066
982.162	32.93816
982.335	2.21863
982.507	12.45848
982.68	30.8902
982.852	-20.30902
983.024	-3.92527
983.197	-28.5009
983.369	-26.45293
983.542	-8.02121
983.714	-28.5009
983.886	-51.02855
984.059	39.08207
984.231	-36.69277
984.403	-26.45293
984.576	41.13004
984.748	-53.07652
984.92	26.79426
985.093	26.79426
985.265	53.41785
985.437	-26.45293
985.609	-65.36434
985.781	-5.97324
985.953	-24.40496
986.126	30.8902
986.298	18.60238
986.47	55.46582
986.642	16.55441
986.814	-42.83668
986.986	28.84223
987.158	65.70566
987.33	24.74629
987.502	-8.02121
987.674	22.69832
987.846	14.50645
988.018	8.36254
988.19	2.21863
988.361	-10.06918
988.533	8.36254
988.705	-14.16512
988.877	-77.65215
989.049	-20.30902
989.221	47.27395
989.392	37.0341
989.564	-63.31637
989.736	-10.06918
989.908	30.8902
990.079	-12.11715
990.251	12.45848
990.423	65.70566
990.594	-77.65215
990.766	18.60238
990.937	-75.60418
991.109	4.2666
991.281	-30.54887
991.452	-5.97324
991.624	2.21863
991.795	32.93816
991.967	-26.45293
992.138	0.17066
992.31	32.93816
992.481	77.99348
992.652	-40.78871
992.824	73.89754
992.995	-46.93262
993.167	10.41051
993.338	-20.30902
993.509	6.31457
993.681	45.22598
993.852	-61.2684
994.023	0.17066
994.194	4.2666
994.366	24.74629
994.537	51.36988
994.708	30.8902
994.879	-30.54887
995.05	-36.69277
995.221	-38.74074
995.393	24.74629
995.564	6.31457
995.735	41.13004
995.906	18.60238
996.077	-53.07652
996.248	22.69832
996.419	0.17066
996.59	8.36254
996.761	-28.5009
996.932	-14.16512
997.103	-32.59684
997.274	4.2666
997.444	32.93816
997.615	59.56176
997.786	6.31457
997.957	4.2666
998.128	12.45848
998.299	20.65035
998.469	-20.30902
998.64	51.36988
998.811	20.65035
998.982	-28.5009
999.152	-128.85137
999.323	45.22598
999.494	47.27395
999.664	-10.06918
999.835	-16.21309
1000.006	16.55441
1000.176	-59.22043
1000.347	22.69832
1000.517	-14.16512
1000.688	-40.78871
1000.858	6.31457
1001.029	55.46582
1001.199	-28.5009
1001.37	98.47316
1001.54	-22.35699
1001.711	-42.83668
1001.881	-48.98059
1002.051	-71.50824
1002.222	84.13738
1002.392	-16.21309
1002.562	28.84223
1002.733	61.60973
1002.903	-26.45293
1003.073	73.89754
1003.244	18.60238
1003.414	-14.16512
1003.584	32.93816
1003.754	-26.45293
1003.924	12.45848
1004.094	39.08207
1004.265	-48.98059
1004.435	-77.65215
1004.605	49.32191
1004.775	16.55441
1004.945	28.84223
1005.115	6.31457
1005.285	30.8902
1005.455	2.21863
1005.625	4.2666
1005.795	-16.21309
1005.965	10.41051
1006.135	-20.30902
1006.305	-34.6448
1006.475	0.17066
1006.645	-38.74074
1006.814	28.84223
1006.984	59.56176
1007.154	-48.98059
1007.324	-14.16512
1007.494	-12.11715
1007.663	-26.45293
1007.833	67.75363
1008.003	30.8902
1008.172	-1.8773
1008.342	41.13004
1008.512	-18.26105
1008.681	0.17066
1008.851	28.84223
1009.021	43.17801
1009.19	-12.11715
1009.36	-32.59684
1009.529	14.50645
1009.699	-30.54887
1009.868	2.21863
1010.038	65.70566
1010.207	65.70566
1010.377	-5.97324
1010.546	-10.06918
1010.716	-12.11715
1010.885	10.41051
1011.054	6.31457
1011.224	102.5691
1011.393	32.93816
1011.562	14.50645
1011.732	26.79426
1011.901	22.69832
1012.07	39.08207
1012.24	-1.8773
1012.409	-42.83668
1012.578	20.65035
1012.747	28.84223
1012.916	8.36254
1013.085	-24.40496
1013.255	-48.98059
1013.424	26.79426
1013.593	-14.16512
1013.762	0.17066
1013.931	4.2666
1014.1	22.69832
1014.269	12.45848
1014.438	12.45848
1014.607	22.69832
1014.776	-46.93262
1014.945	26.79426
1015.114	51.36988
1015.283	-12.11715
1015.451	45.22598
1015.62	49.32191
1015.789	-10.06918
1015.958	-32.59684
1016.127	-3.92527
1016.296	-36.69277
1016.464	-10.06918
1016.633	-8.02121
1016.802	-5.97324
1016.971	-3.92527
1017.139	-28.5009
1017.308	14.50645
1017.477	24.74629
1017.645	-44.88465
1017.814	4.2666
1017.982	53.41785
1018.151	49.32191
1018.319	32.93816
1018.488	-36.69277
1018.657	28.84223
1018.825	22.69832
1018.993	49.32191
1019.162	28.84223
1019.33	12.45848
1019.499	-48.98059
1019.667	73.89754
1019.836	26.79426
1020.004	-26.45293
1020.172	-16.21309
1020.341	16.55441
1020.509	10.41051
1020.677	14.50645
1020.845	24.74629
1021.014	2.21863
1021.182	-69.46027
1021.35	-22.35699
1021.518	53.41785
1021.686	65.70566
1021.855	-12.11715
1022.023	-42.83668
1022.191	-38.74074
1022.359	41.13004
1022.527	-16.21309
1022.695	32.93816
1022.863	45.22598
1023.031	-40.78871
1023.199	73.89754
1023.367	-32.59684
1023.535	-12.11715
1023.703	45.22598
1023.871	28.84223
1024.039	4.2666
1024.207	88.23332
1024.375	-1.8773
1024.542	24.74629
1024.71	-36.69277
1024.878	-91.98793
1025.046	47.27395
1025.213	-12.11715
1025.381	-16.21309
1025.549	-3.92527
1025.717	2.21863
1025.884	6.31457
1026.052	43.17801
1026.22	-34.6448
1026.387	28.84223
1026.555	10.41051
1026.722	-30.54887
1026.89	-16.21309
1027.058	-36.69277
1027.225	-67.4123
1027.393	-12.11715
1027.56	10.41051
1027.728	41.13004
1027.895	-28.5009
1028.062	96.4252
1028.23	-48.98059
1028.397	-26.45293
1028.565	-18.26105
1028.732	0.17066
1028.899	2.21863
1029.067	16.55441
1029.234	45.22598
1029.401	28.84223
1029.568	32.93816
1029.736	22.69832
1029.903	-36.69277
1030.07	-34.6448
1030.237	-1.8773
1030.404	-3.92527
1030.572	28.84223
1030.739	-3.92527
1030.906	41.13004
1031.073	110.76098
1031.24	24.74629
1031.407	22.69832
1031.574	-48.98059
1031.741	22.69832
1031.908	-14.16512
1032.075	-32.59684
1032.242	2.21863
1032.409	-10.06918
1032.576	26.79426
1032.743	-10.06918
1032.91	-48.98059
1033.076	20.65035
1033.243	-3.92527
1033.41	65.70566
1033.577	-5.97324
1033.744	-34.6448
1033.91	16.55441
1034.077	-26.45293
1034.244	63.6577
1034.41	32.93816
1034.577	22.69832
1034.744	71.84957
1034.91	-8.02121
1035.077	2.21863
1035.244	-42.83668
1035.41	34.98613
1035.577	22.69832
1035.743	-55.12449
1035.91	-28.5009
1036.076	14.50645
1036.243	16.55441
1036.409	24.74629
1036.576	34.98613
1036.742	71.84957
1036.908	-10.06918
1037.075	73.89754
1037.241	20.65035
1037.408	-44.88465
1037.574	6.31457
1037.74	-38.74074
1037.906	22.69832
1038.073	53.41785
1038.239	-1.8773
1038.405	-26.45293
1038.571	-32.59684
1038.738	-22.35699
1038.904	12.45848
1039.07	75.94551
1039.236	-1.8773
1039.402	65.70566
1039.568	-1.8773
1039.734	24.74629
1039.9	-38.74074
1040.066	49.32191
1040.232	0.17066
1040.398	16.55441
1040.564	14.50645
1040.73	18.60238
1040.896	-10.06918
1041.062	-14.16512
1041.228	-89.93996
1041.394	-96.08387
1041.56	-69.46027
1041.725	-18.26105
1041.891	16.55441
1042.057	8.36254
1042.223	22.69832
1042.389	84.13738
1042.554	-10.06918
1042.72	10.41051
1042.886	-51.02855
1043.051	-1.8773
1043.217	65.70566
1043.383	77.99348
1043.548	-30.54887
1043.714	-8.02121
1043.879	-30.54887
1044.045	4.2666
1044.21	-134.99527
1044.376	-20.30902
1044.541	-38.74074
1044.707	71.84957
1044.872	-1.8773
1045.038	-14.16512
1045.203	-30.54887
1045.369	61.60973
1045.534	47.27395
1045.699	22.69832
1045.865	8.36254
1046.03	4.2666
1046.195	2.21863
1046.361	32.93816
1046.526	-36.69277
1046.691	-42.83668
1046.856	-14.16512
1047.021	51.36988
1047.187	24.74629
1047.352	43.17801
1047.517	-28.5009
1047.682	77.99348
1047.847	10.41051
1048.012	2.21863
1048.177	0.17066
1048.342	-5.97324
1048.507	26.79426
1048.672	-61.2684
1048.837	-36.69277
1049.002	16.55441
1049.167	-14.16512
1049.332	-12.11715
1049.497	-30.54887
1049.662	4.2666
1049.827	73.89754
1049.992	80.04145
1050.156	24.74629
1050.321	-28.5009
1050.486	-8.02121
1050.651	12.45848
1050.816	43.17801
1050.98	-67.4123
1051.145	-10.06918
1051.31	2.21863
1051.474	-59.22043
1051.639	96.4252
1051.804	22.69832
1051.968	2.21863
1052.133	20.65035
1052.297	28.84223
1052.462	16.55441
1052.626	69.8016
1052.791	24.74629
1052.955	-10.06918
1053.12	-28.5009
1053.284	-18.26105
1053.449	-28.5009
1053.613	51.36988
1053.777	-22.35699
1053.942	57.51379
1054.106	-3.92527
1054.27	77.99348
1054.435	8.36254
1054.599	20.65035
1054.763	22.69832
1054.928	-53.07652
1055.092	-3.92527
1055.256	-14.16512
1055.42	-32.59684
1055.584	-36.69277
1055.748	6.31457
1055.913	10.41051
1056.077	0.17066
1056.241	-20.30902
1056.405	14.50645
1056.569	30.8902
1056.733	6.31457
1056.897	-26.45293
1057.061	-67.4123
1057.225	-32.59684
1057.389	34.98613
1057.553	0.17066
1057.717	65.70566
1057.88	26.79426
1058.044	0.17066
1058.208	12.45848
1058.372	39.08207
1058.536	26.79426
1058.7	-55.12449
1058.863	10.41051
1059.027	-20.30902
1059.191	-8.02121
1059.355	34.98613
1059.518	73.89754
1059.682	65.70566
1059.846	-20.30902
1060.009	-8.02121
1060.173	20.65035
1060.336	20.65035
1060.5	53.41785
1060.663	-8.02121
1060.827	0.17066
1060.99	53.41785
1061.154	-32.59684
1061.317	24.74629
1061.481	47.27395
1061.644	-26.45293
1061.808	-1.8773
1061.971	37.0341
1062.134	47.27395
1062.298	-24.40496
1062.461	10.41051
1062.624	-36.69277
1062.788	20.65035
1062.951	-10.06918
1063.114	104.61707
1063.277	4.2666
1063.441	-5.97324
1063.604	47.27395
1063.767	26.79426
1063.93	-24.40496
1064.093	-3.92527
1064.256	-18.26105
1064.419	4.2666
1064.582	-65.36434
1064.745	-8.02121
1064.908	-44.88465
1065.071	-32.59684
1065.234	-30.54887
1065.397	-32.59684
1065.56	22.69832
1065.723	-24.40496
1065.886	-1.8773
1066.049	-8.02121
1066.212	-36.69277
1066.375	-12.11715
1066.537	-51.02855
1066.7	16.55441
1066.863	-44.88465
1067.026	-26.45293
1067.189	37.0341
1067.351	22.69832
1067.514	4.2666
1067.677	2.21863
1067.839	24.74629
1068.002	63.6577
1068.165	16.55441
1068.327	-40.78871
1068.49	-26.45293
1068.652	-1.8773
1068.815	-16.21309
1068.977	-30.54887
1069.14	82.08941
1069.302	20.65035
1069.465	12.45848
1069.627	-48.98059
1069.79	-8.02121
1069.952	-30.54887
1070.114	59.56176
1070.277	32.93816
1070.439	14.50645
1070.601	-26.45293
1070.764	-14.16512
1070.926	88.23332
1071.088	-32.59684
1071.25	18.60238
1071.413	59.56176
1071.575	106.66504
1071.737	-14.16512
1071.899	-20.30902
1072.061	22.69832
1072.223	-18.26105
1072.385	4.2666
1072.547	6.31457
1072.71	-24.40496
1072.872	2.21863
1073.034	-18.26105
1073.196	8.36254
1073.358	-8.02121
1073.519	32.93816
1073.681	-24.40496
1073.843	8.36254
1074.005	2.21863
1074.167	-20.30902
1074.329	-44.88465
1074.491	-30.54887
1074.652	-20.30902
1074.814	-100.1798
1074.976	34.98613
1075.138	41.13004
1075.299	-30.54887
1075.461	10.41051
1075.623	4.2666
1075.785	-24.40496
1075.946	41.13004
1076.108	57.51379
1076.269	49.32191
1076.431	22.69832
1076.593	-40.78871
1076.754	49.32191
1076.916	-5.97324
1077.077	-22.35699
1077.239	-10.06918
1077.4	14.50645
1077.561	-34.6448
1077.723	-53.07652
1077.884	55.46582
1078.046	-24.40496
1078.207	-38.74074
1078.368	12.45848
1078.53	-40.78871
1078.691	55.46582
1078.852	20.65035
1079.013	14.50645
1079.175	8.36254
1079.336	24.74629
1079.497	53.41785
1079.658	-30.54887
1079.819	-28.5009
1079.981	18.60238
1080.142	-3.92527
1080.303	-20.30902
1080.464	-10.06918
1080.625	30.8902
1080.786	-10.06918
1080.947	-32.59684
1081.108	-30.54887
1081.269	12.45848
1081.43	-20.30902
1081.591	32.93816
1081.752	39.08207
1081.912	12.45848
1082.073	67.75363
1082.234	-24.40496
1082.395	-3.92527
1082.556	41.13004
1082.717	-18.26105
1082.877	-40.78871
1083.038	28.84223
1083.199	16.55441
1083.359	-3.92527
1083.52	-3.92527
1083.681	-1.8773
1083.841	-14.16512
1084.002	-10.06918
1084.163	-5.97324
1084.323	24.74629
1084.484	-8.02121
1084.644	39.08207
1084.805	-38.74074
1084.965	-36.69277
1085.126	34.98613
1085.286	-36.69277
1085.447	-8.02121
1085.607	4.2666
1085.767	-28.5009
1085.928	-42.83668
1086.088	18.60238
1086.249	10.41051
1086.409	-8.02121
1086.569	10.41051
1086.729	-22.35699
1086.89	-14.16512
1087.05	0.17066
1087.21	-3.92527
1087.37	32.93816
1087.53	-100.1798
1087.691	88.23332
1087.851	-8.02121
1088.011	-71.50824
1088.171	-24.40496
1088.331	10.41051
1088.491	-1.8773
1088.651	28.84223
1088.811	8.36254
1088.971	59.56176
1089.131	20.65035
1089.291	47.27395
1089.451	43.17801
1089.611	2.21863
1089.771	-16.21309
1089.93	28.84223
1090.09	8.36254
1090.25	0.17066
1090.41	0.17066
1090.57	45.22598
1090.729	73.89754
1090.889	14.50645
1091.049	-34.6448
1091.208	-22.35699
1091.368	-40.78871
1091.528	-24.40496
1091.687	6.31457
1091.847	37.0341
1092.007	6.31457
1092.166	41.13004
1092.326	-24.40496
1092.485	45.22598
1092.645	16.55441
1092.804	-12.11715
1092.964	6.31457
1093.123	0.17066
1093.282	41.13004
1093.442	4.2666
1093.601	-26.45293
1093.761	-38.74074
1093.92	67.75363
1094.079	-34.6448
1094.239	-57.17246
1094.398	-22.35699
1094.557	0.17066
1094.716	-42.83668
1094.876	-40.78871
1095.035	-8.02121
1095.194	2.21863
1095.353	6.31457
1095.512	-30.54887
1095.671	-8.02121
1095.83	-16.21309
1095.989	20.65035
1096.148	30.8902
1096.307	88.23332
1096.466	-42.83668
1096.625	55.46582
1096.784	96.4252
1096.943	-5.97324
1097.102	16.55441
1097.261	-34.6448
1097.42	14.50645
1097.579	-30.54887
1097.738	28.84223
1097.897	20.65035
1098.055	-3.92527
1098.214	49.32191
1098.373	-12.11715
1098.532	-16.21309
1098.69	-3.92527
1098.849	-12.11715
1099.008	-10.06918
1099.166	6.31457
1099.325	-10.06918
1099.484	57.51379
1099.642	14.50645
1099.801	22.69832
1099.959	51.36988
1100.118	84.13738
1100.276	-5.97324
1100.435	22.69832
1100.593	8.36254
1100.752	-14.16512
1100.91	-26.45293
1101.068	-40.78871
1101.227	6.31457
1101.385	8.36254
1101.544	22.69832
1101.702	12.45848
1101.86	-32.59684
1102.018	18.60238
1102.177	-40.78871
1102.335	51.36988
1102.493	12.45848
1102.651	6.31457
1102.809	-24.40496
1102.968	-20.30902
1103.126	20.65035
1103.284	-55.12449
1103.442	96.4252
1103.6	-10.06918
1103.758	8.36254
1103.916	-14.16512
1104.074	32.93816
1104.232	-18.26105
1104.39	-14.16512
1104.548	-18.26105
1104.706	57.51379
1104.864	-24.40496
1105.022	43.17801
1105.179	24.74629
1105.337	-34.6448
1105.495	-48.98059
1105.653	63.6577
1105.811	51.36988
1105.968	-20.30902
1106.126	-38.74074
1106.284	-96.08387
1106.441	34.98613
1106.599	32.93816
1106.757	65.70566
1106.914	-44.88465
1107.072	34.98613
1107.23	-14.16512
1107.387	-14.16512
1107.545	-14.16512
1107.702	14.50645
1107.86	-14.16512
1108.017	-20.30902
1108.175	-30.54887
1108.332	14.50645
1108.489	-1.8773
1108.647	-48.98059
1108.804	-36.69277
1108.962	4.2666
1109.119	-26.45293
1109.276	16.55441
1109.433	30.8902
1109.591	20.65035
1109.748	-55.12449
1109.905	20.65035
1110.062	-24.40496
1110.22	-42.83668
1110.377	-1.8773
1110.534	86.18535
1110.691	-18.26105
1110.848	61.60973
1111.005	-81.74809
1111.162	-30.54887
1111.319	20.65035
1111.476	-28.5009
1111.633	-30.54887
1111.79	0.17066
1111.947	28.84223
1112.104	-22.35699
1112.261	6.31457
1112.418	-8.02121
1112.575	-22.35699
1112.732	16.55441
1112.888	-1.8773
1113.045	28.84223
1113.202	-24.40496
1113.359	16.55441
1113.515	20.65035
1113.672	-22.35699
1113.829	18.60238
1113.985	-38.74074
1114.142	14.50645
1114.299	-20.30902
1114.455	53.41785
1114.612	-1.8773
1114.769	-16.21309
1114.925	65.70566
1115.082	41.13004
1115.238	-34.6448
1115.395	49.32191
1115.551	-30.54887
1115.707	-5.97324
1115.864	34.98613
1116.02	-34.6448
1116.177	14.50645
1116.333	-10.06918
1116.489	-44.88465
1116.646	-20.30902
1116.802	53.41785
1116.958	-5.97324
1117.114	-77.65215
1117.271	24.74629
1117.427	-20.30902
1117.583	8.36254
1117.739	73.89754
1117.895	102.5691
1118.051	-59.22043
1118.208	53.41785
1118.364	59.56176
1118.52	0.17066
1118.676	-12.11715
1118.832	-3.92527
1118.988	32.93816
1119.144	-3.92527
1119.3	32.93816
1119.456	-73.55621
1119.611	8.36254
1119.767	28.84223
1119.923	22.69832
1120.079	-22.35699
1120.235	16.55441
1120.391	-48.98059
1120.546	2.21863
1120.702	-44.88465
1120.858	37.0341
1121.014	28.84223
1121.169	-5.97324
1121.325	-18.26105
1121.481	4.2666
1121.636	34.98613
1121.792	-22.35699
1121.947	61.60973
1122.103	-26.45293
1122.259	4.2666
1122.414	-73.55621
1122.57	4.2666
1122.725	-46.93262
1122.881	4.2666
1123.036	-46.93262
1123.191	-26.45293
1123.347	45.22598
1123.502	39.08207
1123.657	49.32191
1123.813	-8.02121
1123.968	-1.8773
1124.123	37.0341
1124.279	75.94551
1124.434	-42.83668
1124.589	94.37723
1124.744	2.21863
1124.9	14.50645
1125.055	-34.6448
1125.21	-20.30902
1125.365	32.93816
1125.52	59.56176
1125.675	-8.02121
1125.83	-40.78871
1125.985	4.2666
1126.14	-10.06918
1126.295	34.98613
1126.45	55.46582
1126.605	-8.02121
