Data from uniphase1103p110838_USB4C031521__0__16-10-06-126.txt Node

Date: Wed May 06 16:10:06 CEST 2026
User: FIDOPA_3
Spectrometer: USB4C03152
Scans to average: 1
Trigger mode: 4
Integration Time (sec): 2.000000E-3
Electric dark correction enabled: true
Boxcar width: 0
XAxis mode: Wavelengths
Number of Pixels in Spectrum: 3648
>>>>>Begin Spectral Data<<<<<
445.929	5.80258
446.14	5.80258
446.351	5.80258
446.562	-8.5332
446.773	-29.01289
446.984	-55.63648
447.194	-0.34133
447.405	32.42617
447.616	-4.43727
447.827	20.13836
448.038	-26.96492
448.249	36.52211
448.459	11.94648
448.67	-57.68445
448.881	3.75461
449.092	30.3782
449.303	9.89852
449.513	-6.48523
449.724	1.70664
449.935	-12.62914
450.146	-4.43727
450.356	3.75461
450.567	46.76195
450.778	-22.86898
450.988	9.89852
451.199	-41.3007
451.41	-2.3893
451.62	32.42617
451.831	18.09039
452.042	-12.62914
452.252	46.76195
452.463	-24.91695
452.674	-31.06086
452.884	28.33023
453.095	-14.67711
453.305	32.42617
453.516	30.3782
453.727	-16.72508
453.937	20.13836
454.148	-26.96492
454.358	38.57008
454.569	20.13836
454.779	28.33023
454.99	-35.1568
455.2	22.18633
455.411	-0.34133
455.621	26.28227
455.832	9.89852
456.042	-4.43727
456.253	-39.25273
456.463	1.70664
456.674	7.85055
456.884	-41.3007
457.095	-20.82102
457.305	77.48148
457.515	3.75461
457.726	24.2343
457.936	-8.5332
458.147	-41.3007
458.357	-12.62914
458.567	16.04242
458.778	28.33023
458.988	-0.34133
459.198	-8.5332
459.409	28.33023
459.619	-49.49258
459.829	59.04977
460.039	30.3782
460.25	28.33023
460.46	-24.91695
460.67	24.2343
460.881	69.28961
461.091	30.3782
461.301	26.28227
461.511	30.3782
461.721	30.3782
461.932	9.89852
462.142	11.94648
462.352	32.42617
462.562	-29.01289
462.772	-33.10883
462.983	-6.48523
463.193	-0.34133
463.403	73.38555
463.613	-2.3893
463.823	5.80258
464.033	22.18633
464.243	42.66602
464.453	-4.43727
464.664	20.13836
464.874	1.70664
465.084	3.75461
465.294	34.47414
465.504	42.66602
465.714	26.28227
465.924	36.52211
466.134	-2.3893
466.344	-0.34133
466.554	-49.49258
466.764	83.62539
466.974	-57.68445
467.184	16.04242
467.394	-4.43727
467.604	20.13836
467.814	7.85055
468.024	-24.91695
468.233	81.57742
468.443	-31.06086
468.653	-35.1568
468.863	3.75461
469.073	57.0018
469.283	-39.25273
469.493	30.3782
469.703	-20.82102
469.912	97.96117
470.122	18.09039
470.332	-6.48523
470.542	40.61805
470.752	32.42617
470.962	36.52211
471.171	32.42617
471.381	-26.96492
471.591	-10.58117
471.801	57.0018
472.01	67.24164
472.22	-2.3893
472.43	61.09773
472.64	1.70664
472.849	-24.91695
473.059	20.13836
473.269	57.0018
473.478	-82.26008
473.688	-26.96492
473.898	-16.72508
474.107	-10.58117
474.317	1.70664
474.527	-35.1568
474.736	16.04242
474.946	85.67336
475.155	1.70664
475.365	75.43352
475.575	73.38555
475.784	24.2343
475.994	-4.43727
476.203	11.94648
476.413	-55.63648
476.622	-37.20477
476.832	63.1457
477.041	75.43352
477.251	-0.34133
477.46	20.13836
477.67	16.04242
477.879	-10.58117
478.089	-55.63648
478.298	-14.67711
478.508	-12.62914
478.717	54.95383
478.927	16.04242
479.136	16.04242
479.345	20.13836
479.555	11.94648
479.764	32.42617
479.974	28.33023
480.183	-76.11617
480.392	32.42617
480.602	65.19367
480.811	63.1457
481.02	40.61805
481.23	16.04242
481.439	38.57008
481.648	3.75461
481.858	44.71398
482.067	32.42617
482.276	-43.34867
482.485	61.09773
482.695	65.19367
482.904	16.04242
483.113	69.28961
483.322	7.85055
483.532	-31.06086
483.741	20.13836
483.95	-26.96492
484.159	5.80258
484.368	57.0018
484.577	73.38555
484.787	40.61805
484.996	67.24164
485.205	-14.67711
485.414	-4.43727
485.623	-35.1568
485.832	-57.68445
486.041	18.09039
486.25	24.2343
486.459	20.13836
486.669	40.61805
486.878	44.71398
487.087	-16.72508
487.296	-18.77305
487.505	3.75461
487.714	-6.48523
487.923	87.72133
488.132	67.24164
488.341	36.52211
488.55	61.09773
488.759	38.57008
488.968	34.47414
489.177	-18.77305
489.385	16.04242
489.594	28.33023
489.803	-12.62914
490.012	-55.63648
490.221	11.94648
490.43	71.33758
490.639	-4.43727
490.848	36.52211
491.057	30.3782
491.265	44.71398
491.474	83.62539
491.683	18.09039
491.892	73.38555
492.101	38.57008
492.31	-0.34133
492.518	54.95383
492.727	16.04242
492.936	46.76195
493.145	-10.58117
493.353	-69.97227
493.562	-24.91695
493.771	-26.96492
493.98	-8.5332
494.188	50.85789
494.397	57.0018
494.606	-10.58117
494.814	-20.82102
495.023	32.42617
495.232	-37.20477
495.44	-4.43727
495.649	-10.58117
495.858	3.75461
496.066	95.9132
496.275	11.94648
496.483	28.33023
496.692	9.89852
496.901	42.66602
497.109	5.80258
497.318	24.2343
497.526	93.86523
497.735	26.28227
497.943	-8.5332
498.152	-8.5332
498.36	-4.43727
498.569	48.80992
498.777	34.47414
498.986	28.33023
499.194	61.09773
499.403	18.09039
499.611	-26.96492
499.82	-31.06086
500.028	-31.06086
500.236	24.2343
500.445	1.70664
500.653	50.85789
500.862	-4.43727
501.07	-20.82102
501.278	1.70664
501.487	3.75461
501.695	67.24164
501.903	22.18633
502.112	24.2343
502.32	20.13836
502.528	75.43352
502.737	24.2343
502.945	46.76195
503.153	3.75461
503.361	3.75461
503.57	48.80992
503.778	11.94648
503.986	-39.25273
504.194	3.75461
504.403	83.62539
504.611	110.24898
504.819	-2.3893
505.027	69.28961
505.235	100.00914
505.443	-80.21211
505.652	20.13836
505.86	54.95383
506.068	-10.58117
506.276	-41.3007
506.484	-2.3893
506.692	-57.68445
506.9	57.0018
507.108	79.52945
507.316	-39.25273
507.524	22.18633
507.733	-29.01289
507.941	32.42617
508.149	-49.49258
508.357	69.28961
508.565	18.09039
508.773	-31.06086
508.981	-12.62914
509.189	61.09773
509.397	22.18633
509.605	42.66602
509.812	52.90586
510.02	-16.72508
510.228	26.28227
510.436	32.42617
510.644	18.09039
510.852	3.75461
511.06	-26.96492
511.268	65.19367
511.476	97.96117
511.684	3.75461
511.891	-12.62914
512.099	9.89852
512.307	5.80258
512.515	30.3782
512.723	-33.10883
512.93	22.18633
513.138	-57.68445
513.346	93.86523
513.554	48.80992
513.761	-18.77305
513.969	13.99445
514.177	7.85055
514.385	16.04242
514.592	11.94648
514.8	-8.5332
515.008	16.04242
515.215	1.70664
515.423	-22.86898
515.631	5.80258
515.838	100.00914
516.046	46.76195
516.254	-10.58117
516.461	38.57008
516.669	3.75461
516.876	30.3782
517.084	16.04242
517.292	46.76195
517.499	7.85055
517.707	3.75461
517.914	-2.3893
518.122	30.3782
518.329	36.52211
518.537	-20.82102
518.744	18.09039
518.952	71.33758
519.159	5.80258
519.367	38.57008
519.574	48.80992
519.782	-8.5332
519.989	7.85055
520.197	95.9132
520.404	59.04977
520.611	95.9132
520.819	61.09773
521.026	-18.77305
521.234	-45.39664
521.441	1.70664
521.648	-12.62914
521.856	11.94648
522.063	44.71398
522.27	9.89852
522.478	30.3782
522.685	13.99445
522.892	22.18633
523.1	7.85055
523.307	7.85055
523.514	-26.96492
523.721	-59.73242
523.929	-12.62914
524.136	32.42617
524.343	77.48148
524.55	-4.43727
524.757	48.80992
524.965	11.94648
525.172	-18.77305
525.379	69.28961
525.586	11.94648
525.793	-6.48523
526	108.20102
526.208	-20.82102
526.415	73.38555
526.622	13.99445
526.829	38.57008
527.036	22.18633
527.243	-37.20477
527.45	108.20102
527.657	3.75461
527.864	85.67336
528.071	16.04242
528.278	44.71398
528.485	38.57008
528.692	-0.34133
528.899	-14.67711
529.106	126.63273
529.313	-39.25273
529.52	-63.82836
529.727	67.24164
529.934	69.28961
530.141	-16.72508
530.348	44.71398
530.555	36.52211
530.762	-37.20477
530.968	46.76195
531.175	-2.3893
531.382	57.0018
531.589	40.61805
531.796	5.80258
532.003	-18.77305
532.21	-92.49992
532.416	65.19367
532.623	-41.3007
532.83	16.04242
533.037	-35.1568
533.243	97.96117
533.45	40.61805
533.657	-0.34133
533.864	100.00914
534.07	-18.77305
534.277	-18.77305
534.484	77.48148
534.691	-14.67711
534.897	3.75461
535.104	7.85055
535.311	-67.9243
535.517	-6.48523
535.724	28.33023
535.93	61.09773
536.137	9.89852
536.344	89.7693
536.55	54.95383
536.757	-12.62914
536.963	28.33023
537.17	18.09039
537.377	42.66602
537.583	65.19367
537.79	5.80258
537.996	13.99445
538.203	-33.10883
538.409	-35.1568
538.616	-29.01289
538.822	38.57008
539.029	-16.72508
539.235	75.43352
539.442	40.61805
539.648	-14.67711
539.854	-55.63648
540.061	16.04242
540.267	-2.3893
540.474	30.3782
540.68	52.90586
540.886	13.99445
541.093	7.85055
541.299	16.04242
541.505	71.33758
541.712	-0.34133
541.918	36.52211
542.124	32.42617
542.331	5.80258
542.537	-16.72508
542.743	36.52211
542.949	36.52211
543.156	-33.10883
543.362	26.28227
543.568	5.80258
543.774	52.90586
543.981	7.85055
544.187	-0.34133
544.393	50.85789
544.599	1.70664
544.805	44.71398
545.011	18.09039
545.218	42.66602
545.424	-37.20477
545.63	18.09039
545.836	5.80258
546.042	-24.91695
546.248	65.19367
546.454	52.90586
546.66	42.66602
546.866	-12.62914
547.072	9.89852
547.278	-18.77305
547.484	18.09039
547.69	32.42617
547.896	61.09773
548.102	7.85055
548.308	36.52211
548.514	77.48148
548.72	-4.43727
548.926	18.09039
549.132	1.70664
549.338	36.52211
549.544	48.80992
549.75	-4.43727
549.956	-4.43727
550.162	30.3782
550.368	7.85055
550.574	28.33023
550.779	46.76195
550.985	40.61805
551.191	50.85789
551.397	11.94648
551.603	13.99445
551.808	16.04242
552.014	40.61805
552.22	40.61805
552.426	22.18633
552.632	28.33023
552.837	-35.1568
553.043	73.38555
553.249	5.80258
553.454	3.75461
553.66	9.89852
553.866	73.38555
554.071	-14.67711
554.277	20.13836
554.483	40.61805
554.688	18.09039
554.894	52.90586
555.1	-10.58117
555.305	73.38555
555.511	18.09039
555.716	40.61805
555.922	40.61805
556.128	9.89852
556.333	-65.87633
556.539	3.75461
556.744	34.47414
556.95	59.04977
557.155	48.80992
557.361	42.66602
557.566	61.09773
557.772	42.66602
557.977	30.3782
558.183	48.80992
558.388	54.95383
558.594	-24.91695
558.799	-12.62914
559.004	69.28961
559.21	-33.10883
559.415	-10.58117
559.621	48.80992
559.826	11.94648
560.031	9.89852
560.237	9.89852
560.442	46.76195
560.647	-16.72508
560.853	38.57008
561.058	26.28227
561.263	-45.39664
561.468	16.04242
561.674	-4.43727
561.879	-26.96492
562.084	54.95383
562.289	69.28961
562.495	-20.82102
562.7	-8.5332
562.905	24.2343
563.11	-33.10883
563.315	-39.25273
563.521	-4.43727
563.726	48.80992
563.931	54.95383
564.136	3.75461
564.341	22.18633
564.546	13.99445
564.751	36.52211
564.956	34.47414
565.162	18.09039
565.367	85.67336
565.572	1.70664
565.777	7.85055
565.982	16.04242
566.187	-0.34133
566.392	28.33023
566.597	100.00914
566.802	59.04977
567.007	48.80992
567.212	26.28227
567.417	-6.48523
567.622	26.28227
567.827	-0.34133
568.031	46.76195
568.236	-18.77305
568.441	38.57008
568.646	24.2343
568.851	-0.34133
569.056	44.71398
569.261	-4.43727
569.466	22.18633
569.67	3.75461
569.875	57.0018
570.08	-41.3007
570.285	5.80258
570.49	3.75461
570.694	-4.43727
570.899	11.94648
571.104	36.52211
571.309	-12.62914
571.513	-26.96492
571.718	-18.77305
571.923	75.43352
572.128	-16.72508
572.332	-20.82102
572.537	-8.5332
572.742	28.33023
572.946	36.52211
573.151	52.90586
573.355	1.70664
573.56	44.71398
573.765	-31.06086
573.969	34.47414
574.174	-45.39664
574.378	9.89852
574.583	32.42617
574.788	-88.40398
574.992	-33.10883
575.197	-84.30805
575.401	22.18633
575.606	-10.58117
575.81	24.2343
576.015	85.67336
576.219	-0.34133
576.424	-6.48523
576.628	28.33023
576.832	13.99445
577.037	44.71398
577.241	32.42617
577.446	59.04977
577.65	24.2343
577.854	-65.87633
578.059	3.75461
578.263	-41.3007
578.467	-22.86898
578.672	75.43352
578.876	30.3782
579.08	7.85055
579.285	40.61805
579.489	57.0018
579.693	-14.67711
579.898	52.90586
580.102	57.0018
580.306	24.2343
580.51	-14.67711
580.715	18.09039
580.919	-4.43727
581.123	34.47414
581.327	69.28961
581.531	-20.82102
581.735	-0.34133
581.94	3.75461
582.144	38.57008
582.348	-45.39664
582.552	-16.72508
582.756	18.09039
582.96	67.24164
583.164	36.52211
583.368	73.38555
583.572	42.66602
583.776	69.28961
583.98	-20.82102
584.185	32.42617
584.389	-43.34867
584.593	40.61805
584.797	-12.62914
585	5.80258
585.204	30.3782
585.408	-29.01289
585.612	46.76195
585.816	-41.3007
586.02	-0.34133
586.224	18.09039
586.428	3.75461
586.632	7.85055
586.836	-22.86898
587.04	44.71398
587.244	50.85789
587.447	24.2343
587.651	73.38555
587.855	-16.72508
588.059	34.47414
588.263	20.13836
588.466	28.33023
588.67	36.52211
588.874	54.95383
589.078	-47.44461
589.281	-76.11617
589.485	-14.67711
589.689	9.89852
589.893	7.85055
590.096	48.80992
590.3	-20.82102
590.504	-39.25273
590.707	52.90586
590.911	-57.68445
591.115	18.09039
591.318	-6.48523
591.522	7.85055
591.725	48.80992
591.929	40.61805
592.133	-0.34133
592.336	3.75461
592.54	79.52945
592.743	13.99445
592.947	57.0018
593.15	-35.1568
593.354	44.71398
593.557	16.04242
593.761	42.66602
593.964	18.09039
594.168	24.2343
594.371	59.04977
594.575	20.13836
594.778	16.04242
594.981	-0.34133
595.185	-10.58117
595.388	-18.77305
595.592	3.75461
595.795	13.99445
595.998	77.48148
596.202	1.70664
596.405	-35.1568
596.608	40.61805
596.812	26.28227
597.015	48.80992
597.218	34.47414
597.421	3.75461
597.625	40.61805
597.828	-0.34133
598.031	18.09039
598.234	7.85055
598.438	38.57008
598.641	24.2343
598.844	30.3782
599.047	16.04242
599.25	11.94648
599.453	71.33758
599.657	5.80258
599.86	-14.67711
600.063	40.61805
600.266	7.85055
600.469	-12.62914
600.672	48.80992
600.875	54.95383
601.078	97.96117
601.281	52.90586
601.484	5.80258
601.687	30.3782
601.89	63.1457
602.093	13.99445
602.296	16.04242
602.499	5.80258
602.702	13.99445
602.905	44.71398
603.108	124.58477
603.311	48.80992
603.514	34.47414
603.717	-2.3893
603.92	40.61805
604.123	46.76195
604.326	1.70664
604.529	-18.77305
604.731	-12.62914
604.934	-39.25273
605.137	-20.82102
605.34	50.85789
605.543	-0.34133
605.745	-39.25273
605.948	34.47414
606.151	120.48883
606.354	44.71398
606.557	16.04242
606.759	57.0018
606.962	1.70664
607.165	67.24164
607.367	11.94648
607.57	-20.82102
607.773	50.85789
607.975	-16.72508
608.178	34.47414
608.381	-31.06086
608.583	-0.34133
608.786	-26.96492
608.989	16.04242
609.191	34.47414
609.394	-4.43727
609.596	9.89852
609.799	40.61805
610.001	-31.06086
610.204	44.71398
610.406	3.75461
610.609	38.57008
610.811	120.48883
611.014	-6.48523
611.216	-16.72508
611.419	32.42617
611.621	32.42617
611.824	93.86523
612.026	32.42617
612.229	20.13836
612.431	32.42617
612.633	-78.16414
612.836	18.09039
613.038	-24.91695
613.24	9.89852
613.443	54.95383
613.645	28.33023
613.847	-18.77305
614.05	-26.96492
614.252	1.70664
614.454	-33.10883
614.657	85.67336
614.859	59.04977
615.061	44.71398
615.263	-57.68445
615.466	-20.82102
615.668	36.52211
615.87	7.85055
616.072	-37.20477
616.274	-35.1568
616.476	18.09039
616.679	52.90586
616.881	77.48148
617.083	-4.43727
617.285	22.18633
617.487	44.71398
617.689	54.95383
617.891	83.62539
618.093	63.1457
618.295	3.75461
618.497	-6.48523
618.699	65.19367
618.901	11.94648
619.103	18.09039
619.305	63.1457
619.507	73.38555
619.709	-2.3893
619.911	69.28961
620.113	38.57008
620.315	7.85055
620.517	34.47414
620.719	32.42617
620.921	18.09039
621.123	52.90586
621.325	11.94648
621.527	44.71398
621.728	30.3782
621.93	50.85789
622.132	48.80992
622.334	16.04242
622.536	-12.62914
622.737	-6.48523
622.939	-35.1568
623.141	9.89852
623.343	54.95383
623.544	32.42617
623.746	57.0018
623.948	44.71398
624.15	-33.10883
624.351	46.76195
624.553	73.38555
624.755	-49.49258
624.956	-29.01289
625.158	5.80258
625.36	1.70664
625.561	-2.3893
625.763	48.80992
625.964	36.52211
626.166	32.42617
626.367	-20.82102
626.569	32.42617
626.771	52.90586
626.972	18.09039
627.174	5.80258
627.375	42.66602
627.577	30.3782
627.778	-20.82102
627.98	-35.1568
628.181	61.09773
628.382	-20.82102
628.584	-2.3893
628.785	34.47414
628.987	-24.91695
629.188	22.18633
629.39	7.85055
629.591	-2.3893
629.792	-61.78039
629.994	5.80258
630.195	122.5368
630.396	-29.01289
630.598	61.09773
630.799	95.9132
631	568.99398
631.201	7843.37898
631.403	16666.02836
631.604	28796.14727
631.805	51856.27539
632.006	57035.58836
632.208	42492.96227
632.409	35239.05695
632.61	25984.28617
632.811	13762.00867
633.012	8498.72898
633.214	4943.45523
633.415	2074.25102
633.616	327.33367
633.817	116.39289
634.018	28.33023
634.219	114.34492
634.42	59.04977
634.621	-31.06086
634.822	71.33758
635.023	24.2343
635.224	108.20102
635.425	38.57008
635.626	79.52945
635.827	3.75461
636.028	-4.43727
636.229	38.57008
636.43	54.95383
636.631	16.04242
636.832	7.85055
637.033	1.70664
637.234	48.80992
637.435	22.18633
637.636	73.38555
637.837	59.04977
638.037	-8.5332
638.238	16.04242
638.439	-35.1568
638.64	5.80258
638.841	26.28227
639.042	-14.67711
639.242	11.94648
639.443	59.04977
639.644	61.09773
639.845	89.7693
640.045	67.24164
640.246	20.13836
640.447	5.80258
640.648	22.18633
640.848	97.96117
641.049	20.13836
641.25	36.52211
641.45	1.70664
641.651	7.85055
641.851	57.0018
642.052	28.33023
642.253	-14.67711
642.453	18.09039
642.654	44.71398
642.854	20.13836
643.055	-20.82102
643.255	50.85789
643.456	18.09039
643.656	75.43352
643.857	9.89852
644.057	38.57008
644.258	124.58477
644.458	1.70664
644.659	16.04242
644.859	-16.72508
645.06	54.95383
645.26	-2.3893
645.46	26.28227
645.661	9.89852
645.861	67.24164
646.062	-14.67711
646.262	-82.26008
646.462	-33.10883
646.663	20.13836
646.863	-65.87633
647.063	50.85789
647.263	50.85789
647.464	-18.77305
647.664	16.04242
647.864	54.95383
648.064	61.09773
648.265	65.19367
648.465	-6.48523
648.665	-22.86898
648.865	3.75461
649.065	-24.91695
649.266	-29.01289
649.466	-26.96492
649.666	48.80992
649.866	-10.58117
650.066	16.04242
650.266	-33.10883
650.466	16.04242
650.666	-31.06086
650.866	28.33023
651.067	32.42617
651.267	54.95383
651.467	16.04242
651.667	-20.82102
651.867	-72.02023
652.067	-31.06086
652.267	42.66602
652.466	7.85055
652.666	-10.58117
652.866	-0.34133
653.066	36.52211
653.266	16.04242
653.466	-0.34133
653.666	44.71398
653.866	18.09039
654.066	48.80992
654.266	28.33023
654.465	5.80258
654.665	-6.48523
654.865	32.42617
655.065	24.2343
655.265	-12.62914
655.464	65.19367
655.664	40.61805
655.864	-8.5332
656.064	57.0018
656.263	57.0018
656.463	18.09039
656.663	-80.21211
656.862	61.09773
657.062	40.61805
657.262	44.71398
657.461	-74.0682
657.661	-0.34133
657.861	100.00914
658.06	52.90586
658.26	-43.34867
658.459	-0.34133
658.659	-39.25273
658.858	-39.25273
659.058	38.57008
659.258	65.19367
659.457	52.90586
659.657	3.75461
659.856	30.3782
660.056	44.71398
660.255	18.09039
660.454	59.04977
660.654	38.57008
660.853	52.90586
661.053	34.47414
661.252	57.0018
661.452	36.52211
661.651	57.0018
661.85	59.04977
662.05	24.2343
662.249	5.80258
662.448	40.61805
662.648	81.57742
662.847	40.61805
663.046	-16.72508
663.245	-53.58852
663.445	40.61805
663.644	69.28961
663.843	-31.06086
664.042	34.47414
664.242	-43.34867
664.441	-57.68445
664.64	-12.62914
664.839	20.13836
665.038	-12.62914
665.237	24.2343
665.437	52.90586
665.636	18.09039
665.835	-0.34133
666.034	32.42617
666.233	54.95383
666.432	-0.34133
666.631	-53.58852
666.83	13.99445
667.029	52.90586
667.228	24.2343
667.427	20.13836
667.626	61.09773
667.825	-20.82102
668.024	83.62539
668.223	77.48148
668.422	69.28961
668.621	26.28227
668.82	77.48148
669.019	-26.96492
669.218	36.52211
669.417	5.80258
669.615	46.76195
669.814	-20.82102
670.013	-0.34133
670.212	38.57008
670.411	38.57008
670.609	-8.5332
670.808	61.09773
671.007	-16.72508
671.206	9.89852
671.405	32.42617
671.603	46.76195
671.802	22.18633
672.001	79.52945
672.199	22.18633
672.398	-33.10883
672.597	-37.20477
672.795	50.85789
672.994	-8.5332
673.193	3.75461
673.391	34.47414
673.59	22.18633
673.789	7.85055
673.987	87.72133
674.186	13.99445
674.384	79.52945
674.583	40.61805
674.781	-20.82102
674.98	-31.06086
675.178	30.3782
675.377	61.09773
675.575	-6.48523
675.774	-22.86898
675.972	-29.01289
676.171	-4.43727
676.369	5.80258
676.567	-0.34133
676.766	32.42617
676.964	-6.48523
677.163	-6.48523
677.361	57.0018
677.559	-4.43727
677.758	73.38555
677.956	50.85789
678.154	85.67336
678.353	34.47414
678.551	13.99445
678.749	30.3782
678.947	48.80992
679.146	97.96117
679.344	-63.82836
679.542	-14.67711
679.74	7.85055
679.938	1.70664
680.137	81.57742
680.335	65.19367
680.533	-24.91695
680.731	42.66602
680.929	79.52945
681.127	18.09039
681.325	61.09773
681.523	-49.49258
681.721	-22.86898
681.92	24.2343
682.118	-4.43727
682.316	63.1457
682.514	18.09039
682.712	-24.91695
682.91	-65.87633
683.108	-10.58117
683.306	22.18633
683.504	71.33758
683.701	5.80258
683.899	13.99445
684.097	-45.39664
684.295	61.09773
684.493	-14.67711
684.691	71.33758
684.889	52.90586
685.087	-0.34133
685.284	9.89852
685.482	-4.43727
685.68	-29.01289
685.878	42.66602
686.076	-80.21211
686.273	69.28961
686.471	26.28227
686.669	5.80258
686.867	28.33023
687.064	-24.91695
687.262	42.66602
687.46	42.66602
687.657	24.2343
687.855	54.95383
688.053	7.85055
688.25	11.94648
688.448	-2.3893
688.646	57.0018
688.843	48.80992
689.041	50.85789
689.238	36.52211
689.436	5.80258
689.633	-18.77305
689.831	22.18633
690.029	-80.21211
690.226	44.71398
690.424	-31.06086
690.621	-10.58117
690.818	-6.48523
691.016	46.76195
691.213	-22.86898
691.411	-31.06086
691.608	-45.39664
691.806	11.94648
692.003	-4.43727
692.2	-16.72508
692.398	-4.43727
692.595	83.62539
692.792	-10.58117
692.99	77.48148
693.187	67.24164
693.384	-8.5332
693.582	-37.20477
693.779	20.13836
693.976	-18.77305
694.173	-12.62914
694.371	-0.34133
694.568	7.85055
694.765	-12.62914
694.962	52.90586
695.159	-8.5332
695.356	-26.96492
695.554	91.81727
695.751	5.80258
695.948	-4.43727
696.145	-43.34867
696.342	-33.10883
696.539	-20.82102
696.736	61.09773
696.933	3.75461
697.13	26.28227
697.327	26.28227
697.524	30.3782
697.721	52.90586
697.918	24.2343
698.115	116.39289
698.312	26.28227
698.509	63.1457
698.706	81.57742
698.903	-14.67711
699.1	16.04242
699.297	11.94648
699.494	3.75461
699.691	-20.82102
699.887	-10.58117
700.084	71.33758
700.281	-53.58852
700.478	16.04242
700.675	-59.73242
700.871	36.52211
701.068	-47.44461
701.265	50.85789
701.462	26.28227
701.658	26.28227
701.855	81.57742
702.052	20.13836
702.249	20.13836
702.445	-2.3893
702.642	48.80992
702.839	3.75461
703.035	44.71398
703.232	48.80992
703.428	57.0018
703.625	7.85055
703.822	48.80992
704.018	16.04242
704.215	20.13836
704.411	-4.43727
704.608	7.85055
704.804	-10.58117
705.001	114.34492
705.197	-16.72508
705.394	-39.25273
705.59	32.42617
705.787	-4.43727
705.983	48.80992
706.18	9.89852
706.376	-2.3893
706.572	36.52211
706.769	-16.72508
706.965	-4.43727
707.161	16.04242
707.358	13.99445
707.554	-33.10883
707.75	65.19367
707.947	97.96117
708.143	-22.86898
708.339	57.0018
708.536	42.66602
708.732	-10.58117
708.928	-12.62914
709.124	11.94648
709.32	34.47414
709.517	-39.25273
709.713	-35.1568
709.909	-12.62914
710.105	20.13836
710.301	-55.63648
710.497	1.70664
710.693	63.1457
710.89	-24.91695
711.086	22.18633
711.282	22.18633
711.478	52.90586
711.674	-59.73242
711.87	48.80992
712.066	13.99445
712.262	-0.34133
712.458	77.48148
712.654	59.04977
712.85	24.2343
713.046	130.72867
713.242	-61.78039
713.438	79.52945
713.633	30.3782
713.829	11.94648
714.025	11.94648
714.221	40.61805
714.417	36.52211
714.613	75.43352
714.809	-2.3893
715.004	24.2343
715.2	26.28227
715.396	-26.96492
715.592	40.61805
715.788	7.85055
715.983	-22.86898
716.179	65.19367
716.375	52.90586
716.57	22.18633
716.766	-45.39664
716.962	-39.25273
717.157	-2.3893
717.353	18.09039
717.549	-20.82102
717.744	-10.58117
717.94	-33.10883
718.136	71.33758
718.331	38.57008
718.527	-35.1568
718.722	32.42617
718.918	20.13836
719.113	18.09039
719.309	59.04977
719.504	40.61805
719.7	-22.86898
719.895	16.04242
720.091	13.99445
720.286	13.99445
720.482	69.28961
720.677	-37.20477
720.872	-4.43727
721.068	9.89852
721.263	46.76195
721.458	40.61805
721.654	38.57008
721.849	3.75461
722.044	-43.34867
722.24	9.89852
722.435	9.89852
722.63	16.04242
722.826	75.43352
723.021	20.13836
723.216	-49.49258
723.411	36.52211
723.606	-4.43727
723.802	38.57008
723.997	44.71398
724.192	63.1457
724.387	-45.39664
724.582	7.85055
724.777	-55.63648
724.973	13.99445
725.168	5.80258
725.363	-49.49258
725.558	46.76195
725.753	61.09773
725.948	7.85055
726.143	13.99445
726.338	3.75461
726.533	-4.43727
726.728	24.2343
726.923	1.70664
727.118	52.90586
727.313	57.0018
727.508	16.04242
727.703	-20.82102
727.897	44.71398
728.092	36.52211
728.287	-26.96492
728.482	50.85789
728.677	67.24164
728.872	-4.43727
729.067	89.7693
729.261	18.09039
729.456	20.13836
729.651	-12.62914
729.846	63.1457
730.04	100.00914
730.235	48.80992
730.43	3.75461
730.625	34.47414
730.819	20.13836
731.014	-20.82102
731.209	42.66602
731.403	44.71398
731.598	20.13836
731.793	-16.72508
731.987	-65.87633
732.182	20.13836
732.376	-18.77305
732.571	18.09039
732.765	-6.48523
732.96	32.42617
733.155	-24.91695
733.349	36.52211
733.544	54.95383
733.738	116.39289
733.932	-12.62914
734.127	46.76195
734.321	52.90586
734.516	-90.45195
734.71	-33.10883
734.905	52.90586
735.099	-12.62914
735.293	71.33758
735.488	13.99445
735.682	73.38555
735.876	-33.10883
736.071	-8.5332
736.265	24.2343
736.459	67.24164
736.654	54.95383
736.848	22.18633
737.042	-4.43727
737.236	24.2343
737.431	-0.34133
737.625	65.19367
737.819	32.42617
738.013	28.33023
738.207	-6.48523
738.401	-0.34133
738.596	67.24164
738.79	-88.40398
738.984	-51.54055
739.178	-24.91695
739.372	18.09039
739.566	28.33023
739.76	3.75461
739.954	3.75461
740.148	22.18633
740.342	30.3782
740.536	22.18633
740.73	42.66602
740.924	3.75461
741.118	3.75461
741.312	30.3782
741.506	-10.58117
741.7	9.89852
741.894	50.85789
742.087	5.80258
742.281	-26.96492
742.475	-72.02023
742.669	7.85055
742.863	7.85055
743.057	77.48148
743.25	-47.44461
743.444	-29.01289
743.638	-8.5332
743.832	11.94648
744.025	-8.5332
744.219	32.42617
744.413	87.72133
744.607	85.67336
744.8	44.71398
744.994	11.94648
745.188	-35.1568
745.381	-69.97227
745.575	3.75461
745.768	-6.48523
745.962	-14.67711
746.156	77.48148
746.349	16.04242
746.543	38.57008
746.736	93.86523
746.93	52.90586
747.123	9.89852
747.317	36.52211
747.51	30.3782
747.704	-6.48523
747.897	59.04977
748.091	11.94648
748.284	-72.02023
748.478	63.1457
748.671	18.09039
748.864	75.43352
749.058	40.61805
749.251	59.04977
749.444	-24.91695
749.638	-35.1568
749.831	65.19367
750.024	-41.3007
750.218	-10.58117
750.411	28.33023
750.604	7.85055
750.797	75.43352
750.991	20.13836
751.184	7.85055
751.377	38.57008
751.57	-29.01289
751.763	67.24164
751.956	67.24164
752.15	18.09039
752.343	61.09773
752.536	57.0018
752.729	38.57008
752.922	22.18633
753.115	3.75461
753.308	-72.02023
753.501	-47.44461
753.694	-20.82102
753.887	34.47414
754.08	-41.3007
754.273	7.85055
754.466	24.2343
754.659	30.3782
754.852	30.3782
755.045	-16.72508
755.238	13.99445
755.431	20.13836
755.624	1.70664
755.817	32.42617
756.009	-10.58117
756.202	73.38555
756.395	52.90586
756.588	-12.62914
756.781	16.04242
756.973	5.80258
757.166	1.70664
757.359	5.80258
757.552	48.80992
757.744	118.44086
757.937	11.94648
758.13	-33.10883
758.322	13.99445
758.515	52.90586
758.708	7.85055
758.9	57.0018
759.093	46.76195
759.286	5.80258
759.478	-10.58117
759.671	44.71398
759.863	67.24164
760.056	79.52945
760.248	-6.48523
760.441	-16.72508
760.633	38.57008
760.826	69.28961
761.018	-55.63648
761.211	34.47414
761.403	3.75461
761.596	22.18633
761.788	-55.63648
761.981	-2.3893
762.173	87.72133
762.365	87.72133
762.558	-0.34133
762.75	13.99445
762.942	16.04242
763.135	44.71398
763.327	-47.44461
763.519	-14.67711
763.712	-0.34133
763.904	24.2343
764.096	30.3782
764.288	3.75461
764.481	11.94648
764.673	-8.5332
764.865	48.80992
765.057	87.72133
765.249	32.42617
765.441	-12.62914
765.634	44.71398
765.826	5.80258
766.018	24.2343
766.21	9.89852
766.402	16.04242
766.594	-41.3007
766.786	28.33023
766.978	-41.3007
767.17	11.94648
767.362	28.33023
767.554	42.66602
767.746	5.80258
767.938	5.80258
768.13	1.70664
768.322	83.62539
768.514	59.04977
768.706	3.75461
768.898	22.18633
769.089	83.62539
769.281	40.61805
769.473	1.70664
769.665	-0.34133
769.857	-35.1568
770.049	32.42617
770.24	13.99445
770.432	36.52211
770.624	52.90586
770.816	5.80258
771.007	91.81727
771.199	44.71398
771.391	5.80258
771.582	9.89852
771.774	63.1457
771.966	13.99445
772.157	-20.82102
772.349	52.90586
772.541	-2.3893
772.732	54.95383
772.924	13.99445
773.115	13.99445
773.307	9.89852
773.498	-69.97227
773.69	-90.45195
773.881	-22.86898
774.073	11.94648
774.264	-8.5332
774.456	36.52211
774.647	-16.72508
774.839	73.38555
775.03	-12.62914
775.221	38.57008
775.413	26.28227
775.604	7.85055
775.796	52.90586
775.987	63.1457
776.178	11.94648
776.37	-29.01289
776.561	-14.67711
776.752	81.57742
776.943	57.0018
777.135	108.20102
777.326	-16.72508
777.517	38.57008
777.708	46.76195
777.899	11.94648
778.091	-12.62914
778.282	112.29695
778.473	1.70664
778.664	36.52211
778.855	40.61805
779.046	-49.49258
779.237	3.75461
779.428	-61.78039
779.62	11.94648
779.811	7.85055
780.002	52.90586
780.193	44.71398
780.384	20.13836
780.575	44.71398
780.766	-37.20477
780.957	-35.1568
781.148	40.61805
781.338	-31.06086
781.529	34.47414
781.72	1.70664
781.911	26.28227
782.102	24.2343
782.293	-26.96492
782.484	40.61805
782.674	-20.82102
782.865	71.33758
783.056	-31.06086
783.247	-2.3893
783.438	48.80992
783.628	9.89852
783.819	61.09773
784.01	40.61805
784.201	-29.01289
784.391	93.86523
784.582	18.09039
784.773	50.85789
784.963	-37.20477
785.154	-10.58117
785.344	-22.86898
785.535	-12.62914
785.726	61.09773
785.916	-39.25273
786.107	13.99445
786.297	28.33023
786.488	48.80992
786.678	-41.3007
786.869	-20.82102
787.059	-31.06086
787.25	-55.63648
787.44	63.1457
787.631	-37.20477
787.821	-33.10883
788.012	-8.5332
788.202	54.95383
788.392	36.52211
788.583	11.94648
788.773	-14.67711
788.963	-63.82836
789.154	11.94648
789.344	-8.5332
789.534	26.28227
789.724	-29.01289
789.915	-41.3007
790.105	93.86523
790.295	77.48148
790.485	-18.77305
790.676	-2.3893
790.866	116.39289
791.056	54.95383
791.246	36.52211
791.436	-51.54055
791.626	-10.58117
791.816	-14.67711
792.007	57.0018
792.197	26.28227
792.387	30.3782
792.577	59.04977
792.767	63.1457
792.957	61.09773
793.147	-2.3893
793.337	13.99445
793.527	36.52211
793.717	-4.43727
793.907	79.52945
794.097	-8.5332
794.287	57.0018
794.476	26.28227
794.666	-2.3893
794.856	-45.39664
795.046	34.47414
795.236	-29.01289
795.426	-18.77305
795.615	3.75461
795.805	-88.40398
795.995	61.09773
796.185	-29.01289
796.375	79.52945
796.564	-37.20477
796.754	120.48883
796.944	-2.3893
797.133	40.61805
797.323	9.89852
797.513	-16.72508
797.702	-22.86898
797.892	-45.39664
798.082	18.09039
798.271	-35.1568
798.461	1.70664
798.65	32.42617
798.84	9.89852
799.029	-29.01289
799.219	5.80258
799.408	5.80258
799.598	52.90586
799.787	46.76195
799.977	18.09039
800.166	-65.87633
800.356	18.09039
800.545	3.75461
800.735	36.52211
800.924	32.42617
801.113	26.28227
801.303	5.80258
801.492	54.95383
801.681	44.71398
801.871	13.99445
802.06	22.18633
802.249	65.19367
802.438	3.75461
802.628	30.3782
802.817	-35.1568
803.006	22.18633
803.195	79.52945
803.385	7.85055
803.574	85.67336
803.763	38.57008
803.952	85.67336
804.141	11.94648
804.33	40.61805
804.519	16.04242
804.708	85.67336
804.897	20.13836
805.087	57.0018
805.276	5.80258
805.465	48.80992
805.654	38.57008
805.843	5.80258
806.032	-35.1568
806.22	11.94648
806.409	18.09039
806.598	13.99445
806.787	7.85055
806.976	-4.43727
807.165	34.47414
807.354	3.75461
807.543	32.42617
807.732	54.95383
807.92	77.48148
808.109	48.80992
808.298	22.18633
808.487	-12.62914
808.676	-45.39664
808.864	-6.48523
809.053	7.85055
809.242	42.66602
809.43	-35.1568
809.619	40.61805
809.808	16.04242
809.996	44.71398
810.185	-22.86898
810.374	69.28961
810.562	-41.3007
810.751	61.09773
810.939	9.89852
811.128	26.28227
811.317	-33.10883
811.505	-29.01289
811.694	-12.62914
811.882	63.1457
812.071	-63.82836
812.259	26.28227
812.448	-12.62914
812.636	42.66602
812.824	-72.02023
813.013	20.13836
813.201	30.3782
813.39	28.33023
813.578	22.18633
813.766	81.57742
813.955	38.57008
814.143	-24.91695
814.331	40.61805
814.519	44.71398
814.708	5.80258
814.896	22.18633
815.084	32.42617
815.272	11.94648
815.461	20.13836
815.649	-37.20477
815.837	5.80258
816.025	-31.06086
816.213	13.99445
816.401	3.75461
816.59	11.94648
816.778	52.90586
816.966	-20.82102
817.154	9.89852
817.342	-59.73242
817.53	-33.10883
817.718	-41.3007
817.906	-29.01289
818.094	-2.3893
818.282	-12.62914
818.47	-10.58117
818.658	65.19367
818.846	-29.01289
819.034	28.33023
819.222	30.3782
819.409	-10.58117
819.597	-24.91695
819.785	48.80992
819.973	63.1457
820.161	-18.77305
820.349	1.70664
820.536	-16.72508
820.724	-16.72508
820.912	11.94648
821.1	1.70664
821.287	28.33023
821.475	-8.5332
821.663	9.89852
821.85	18.09039
822.038	-4.43727
822.226	57.0018
822.413	18.09039
822.601	30.3782
822.789	36.52211
822.976	30.3782
823.164	36.52211
823.351	13.99445
823.539	32.42617
823.726	28.33023
823.914	-16.72508
824.101	-37.20477
824.289	67.24164
824.476	28.33023
824.664	30.3782
824.851	-37.20477
825.039	-20.82102
825.226	42.66602
825.413	34.47414
825.601	65.19367
825.788	-45.39664
825.976	-0.34133
826.163	-18.77305
826.35	-4.43727
826.537	44.71398
826.725	34.47414
826.912	52.90586
827.099	75.43352
827.286	30.3782
827.474	54.95383
827.661	20.13836
827.848	-8.5332
828.035	1.70664
828.222	9.89852
828.409	-22.86898
828.597	16.04242
828.784	-8.5332
828.971	-33.10883
829.158	-31.06086
829.345	40.61805
829.532	26.28227
829.719	-0.34133
829.906	11.94648
830.093	50.85789
830.28	71.33758
830.467	-20.82102
830.654	38.57008
830.841	104.10508
831.028	7.85055
831.215	28.33023
831.402	-10.58117
831.588	1.70664
831.775	3.75461
831.962	-0.34133
832.149	22.18633
832.336	54.95383
832.522	1.70664
832.709	20.13836
832.896	-16.72508
833.083	20.13836
833.269	75.43352
833.456	57.0018
833.643	44.71398
833.83	20.13836
834.016	20.13836
834.203	83.62539
834.39	-29.01289
834.576	20.13836
834.763	91.81727
834.949	40.61805
835.136	59.04977
835.322	54.95383
835.509	18.09039
835.695	57.0018
835.882	-37.20477
836.068	9.89852
836.255	13.99445
836.441	-63.82836
836.628	22.18633
836.814	42.66602
837.001	-35.1568
837.187	67.24164
837.373	13.99445
837.56	36.52211
837.746	44.71398
837.933	44.71398
838.119	52.90586
838.305	9.89852
838.491	57.0018
838.678	-2.3893
838.864	-59.73242
839.05	13.99445
839.236	20.13836
839.423	-12.62914
839.609	40.61805
839.795	11.94648
839.981	79.52945
840.167	16.04242
840.353	32.42617
840.54	5.80258
840.726	44.71398
840.912	-12.62914
841.098	-61.78039
841.284	54.95383
841.47	24.2343
841.656	61.09773
841.842	59.04977
842.028	-39.25273
842.214	44.71398
842.4	11.94648
842.586	48.80992
842.772	-12.62914
842.958	38.57008
843.143	-4.43727
843.329	97.96117
843.515	36.52211
843.701	13.99445
843.887	-45.39664
844.073	54.95383
844.258	7.85055
844.444	20.13836
844.63	7.85055
844.816	34.47414
845.001	69.28961
845.187	93.86523
845.373	-49.49258
845.559	71.33758
845.744	1.70664
845.93	16.04242
846.115	44.71398
846.301	46.76195
846.487	57.0018
846.672	-4.43727
846.858	-14.67711
847.043	18.09039
847.229	50.85789
847.414	3.75461
847.6	54.95383
847.785	24.2343
847.971	11.94648
848.156	54.95383
848.342	-31.06086
848.527	61.09773
848.713	52.90586
848.898	28.33023
849.083	65.19367
849.269	32.42617
849.454	-94.54789
849.639	5.80258
849.825	24.2343
850.01	26.28227
850.195	11.94648
850.381	22.18633
850.566	-18.77305
850.751	3.75461
850.936	67.24164
851.122	36.52211
851.307	-12.62914
851.492	-4.43727
851.677	20.13836
851.862	1.70664
852.047	1.70664
852.232	-37.20477
852.417	-0.34133
852.603	28.33023
852.788	-24.91695
852.973	48.80992
853.158	40.61805
853.343	-16.72508
853.528	59.04977
853.713	40.61805
853.898	-10.58117
854.083	91.81727
854.267	-6.48523
854.452	7.85055
854.637	5.80258
854.822	-8.5332
855.007	-24.91695
855.192	-33.10883
855.377	36.52211
855.562	46.76195
855.746	67.24164
855.931	28.33023
856.116	9.89852
856.301	-4.43727
856.485	-0.34133
856.67	36.52211
856.855	-51.54055
857.039	59.04977
857.224	77.48148
857.409	69.28961
857.593	-14.67711
857.778	65.19367
857.963	46.76195
858.147	36.52211
858.332	9.89852
858.516	-20.82102
858.701	67.24164
858.885	108.20102
859.07	83.62539
859.254	9.89852
859.439	46.76195
859.623	-33.10883
859.808	-0.34133
859.992	1.70664
860.177	44.71398
860.361	18.09039
860.545	26.28227
860.73	85.67336
860.914	7.85055
861.098	5.80258
861.283	67.24164
861.467	36.52211
861.651	61.09773
861.836	85.67336
862.02	54.95383
862.204	34.47414
862.388	-0.34133
862.572	48.80992
862.757	48.80992
862.941	38.57008
863.125	16.04242
863.309	32.42617
863.493	16.04242
863.677	18.09039
863.861	5.80258
864.045	30.3782
864.23	42.66602
864.414	54.95383
864.598	20.13836
864.782	44.71398
864.966	-33.10883
865.15	3.75461
865.334	75.43352
865.517	22.18633
865.701	-8.5332
865.885	-26.96492
866.069	50.85789
866.253	-18.77305
866.437	-43.34867
866.621	61.09773
866.805	52.90586
866.988	18.09039
867.172	30.3782
867.356	138.92055
867.54	7.85055
867.723	61.09773
867.907	22.18633
868.091	26.28227
868.275	-82.26008
868.458	28.33023
868.642	40.61805
868.826	-12.62914
869.009	-16.72508
869.193	-0.34133
869.376	42.66602
869.56	5.80258
869.744	-49.49258
869.927	-6.48523
870.111	59.04977
870.294	40.61805
870.478	16.04242
870.661	-31.06086
870.845	9.89852
871.028	48.80992
871.211	-6.48523
871.395	-33.10883
871.578	30.3782
871.762	28.33023
871.945	9.89852
872.128	13.99445
872.312	-39.25273
872.495	11.94648
872.678	-26.96492
872.862	85.67336
873.045	18.09039
873.228	-0.34133
873.411	11.94648
873.595	-12.62914
873.778	-51.54055
873.961	28.33023
874.144	50.85789
874.327	61.09773
874.51	1.70664
874.694	-24.91695
874.877	1.70664
875.06	34.47414
875.243	87.72133
875.426	22.18633
875.609	-6.48523
875.792	-10.58117
875.975	22.18633
876.158	-65.87633
876.341	40.61805
876.524	-63.82836
876.707	52.90586
876.89	-16.72508
877.073	9.89852
877.255	28.33023
877.438	87.72133
877.621	42.66602
877.804	26.28227
877.987	52.90586
878.17	48.80992
878.352	40.61805
878.535	-4.43727
878.718	67.24164
878.901	-29.01289
879.083	112.29695
879.266	34.47414
879.449	32.42617
879.631	-57.68445
879.814	-33.10883
879.997	-86.35602
880.179	24.2343
880.362	112.29695
880.545	48.80992
880.727	-20.82102
880.91	-14.67711
881.092	67.24164
881.275	24.2343
881.457	7.85055
881.64	24.2343
881.822	-37.20477
882.005	3.75461
882.187	-47.44461
882.37	95.9132
882.552	57.0018
882.734	9.89852
882.917	20.13836
883.099	65.19367
883.281	44.71398
883.464	-37.20477
883.646	-24.91695
883.828	32.42617
884.011	7.85055
884.193	-10.58117
884.375	1.70664
884.557	9.89852
884.74	57.0018
884.922	59.04977
885.104	57.0018
885.286	38.57008
885.468	-24.91695
885.65	13.99445
885.832	52.90586
886.015	-18.77305
886.197	42.66602
886.379	20.13836
886.561	-35.1568
886.743	50.85789
886.925	13.99445
887.107	16.04242
887.289	-16.72508
887.471	69.28961
887.653	32.42617
887.835	30.3782
888.016	-80.21211
888.198	-0.34133
888.38	-51.54055
888.562	36.52211
888.744	-33.10883
888.926	28.33023
889.108	126.63273
889.289	57.0018
889.471	7.85055
889.653	-12.62914
889.835	36.52211
890.016	-2.3893
890.198	44.71398
890.38	65.19367
890.561	-41.3007
890.743	5.80258
890.925	110.24898
891.106	9.89852
891.288	-61.78039
891.469	1.70664
891.651	-41.3007
891.833	5.80258
892.014	-29.01289
892.196	30.3782
892.377	-59.73242
892.559	-0.34133
892.74	-35.1568
892.922	50.85789
893.103	-57.68445
893.284	-57.68445
893.466	40.61805
893.647	-8.5332
893.829	73.38555
894.01	46.76195
894.191	-18.77305
894.373	30.3782
894.554	7.85055
894.735	20.13836
894.916	-35.1568
895.098	20.13836
895.279	-26.96492
895.46	-43.34867
895.641	34.47414
895.823	22.18633
896.004	9.89852
896.185	-12.62914
896.366	-16.72508
896.547	38.57008
896.728	11.94648
896.909	3.75461
897.09	50.85789
897.271	-8.5332
897.452	-45.39664
897.633	30.3782
897.814	34.47414
897.995	54.95383
898.176	30.3782
898.357	59.04977
898.538	30.3782
898.719	32.42617
898.9	-35.1568
899.081	-16.72508
899.262	63.1457
899.443	-6.48523
899.623	32.42617
899.804	24.2343
899.985	11.94648
900.166	30.3782
900.347	46.76195
900.527	-4.43727
900.708	11.94648
900.889	100.00914
901.07	-22.86898
901.25	40.61805
901.431	-41.3007
901.611	54.95383
901.792	28.33023
901.973	1.70664
902.153	11.94648
902.334	22.18633
902.514	57.0018
902.695	-39.25273
902.876	48.80992
903.056	-26.96492
903.237	79.52945
903.417	54.95383
903.597	16.04242
903.778	7.85055
903.958	18.09039
904.139	63.1457
904.319	69.28961
904.499	-26.96492
904.68	-39.25273
904.86	46.76195
905.04	28.33023
905.221	24.2343
905.401	34.47414
905.581	-39.25273
905.762	28.33023
905.942	-26.96492
906.122	18.09039
906.302	20.13836
906.482	-26.96492
906.663	32.42617
906.843	-0.34133
907.023	118.44086
907.203	61.09773
907.383	-14.67711
907.563	-0.34133
907.743	18.09039
907.923	81.57742
908.103	-24.91695
908.283	-29.01289
908.463	-24.91695
908.643	20.13836
908.823	65.19367
909.003	67.24164
909.183	42.66602
909.363	-6.48523
909.543	20.13836
909.723	59.04977
909.903	24.2343
910.082	-24.91695
910.262	42.66602
910.442	-6.48523
910.622	52.90586
910.802	36.52211
910.981	46.76195
911.161	9.89852
911.341	65.19367
911.521	-51.54055
911.7	-16.72508
911.88	79.52945
912.06	20.13836
912.239	-6.48523
912.419	11.94648
912.598	9.89852
912.778	-12.62914
912.958	-39.25273
913.137	73.38555
913.317	22.18633
913.496	57.0018
913.676	40.61805
913.855	57.0018
914.035	-8.5332
914.214	11.94648
914.393	1.70664
914.573	69.28961
914.752	-41.3007
914.932	79.52945
915.111	-26.96492
915.29	-69.97227
915.47	-10.58117
915.649	3.75461
915.828	-41.3007
916.008	3.75461
916.187	30.3782
916.366	-0.34133
916.545	-4.43727
916.724	9.89852
916.904	7.85055
917.083	46.76195
917.262	-8.5332
917.441	28.33023
917.62	-16.72508
917.799	71.33758
917.978	1.70664
918.158	50.85789
918.337	-12.62914
918.516	-63.82836
918.695	7.85055
918.874	20.13836
919.053	38.57008
919.232	5.80258
919.41	24.2343
919.589	61.09773
919.768	30.3782
919.947	-4.43727
920.126	24.2343
920.305	20.13836
920.484	77.48148
920.663	-0.34133
920.841	75.43352
921.02	69.28961
921.199	63.1457
921.378	65.19367
921.556	32.42617
921.735	11.94648
921.914	-16.72508
922.093	3.75461
922.271	36.52211
922.45	-29.01289
922.629	7.85055
922.807	89.7693
922.986	3.75461
923.164	-31.06086
923.343	-29.01289
923.521	11.94648
923.7	1.70664
923.878	-4.43727
924.057	-8.5332
924.235	54.95383
924.414	20.13836
924.592	32.42617
924.771	87.72133
924.949	3.75461
925.128	34.47414
925.306	-12.62914
925.484	42.66602
925.663	26.28227
925.841	9.89852
926.019	-22.86898
926.198	-31.06086
926.376	-16.72508
926.554	34.47414
926.732	46.76195
926.91	40.61805
927.089	11.94648
927.267	-16.72508
927.445	3.75461
927.623	67.24164
927.801	-2.3893
927.979	30.3782
928.158	69.28961
928.336	-8.5332
928.514	36.52211
928.692	75.43352
928.87	40.61805
929.048	42.66602
929.226	65.19367
929.404	-4.43727
929.582	-18.77305
929.76	48.80992
929.937	42.66602
930.115	65.19367
930.293	42.66602
930.471	-20.82102
930.649	32.42617
930.827	34.47414
931.005	-47.44461
931.182	57.0018
931.36	52.90586
931.538	-6.48523
931.716	57.0018
931.893	11.94648
932.071	38.57008
932.249	-2.3893
932.426	-10.58117
932.604	-0.34133
932.782	67.24164
932.959	40.61805
933.137	52.90586
933.315	93.86523
933.492	69.28961
933.67	40.61805
933.847	69.28961
934.025	28.33023
934.202	5.80258
934.38	16.04242
934.557	46.76195
934.735	24.2343
934.912	-20.82102
935.089	26.28227
935.267	-35.1568
935.444	32.42617
935.622	44.71398
935.799	16.04242
935.976	16.04242
936.154	-43.34867
936.331	-39.25273
936.508	50.85789
936.685	24.2343
936.863	-29.01289
937.04	36.52211
937.217	-2.3893
937.394	7.85055
937.571	-47.44461
937.748	50.85789
937.926	3.75461
938.103	11.94648
938.28	48.80992
938.457	3.75461
938.634	-2.3893
938.811	24.2343
938.988	-26.96492
939.165	-86.35602
939.342	32.42617
939.519	16.04242
939.696	-49.49258
939.873	16.04242
940.05	16.04242
940.227	11.94648
940.404	59.04977
940.58	20.13836
940.757	67.24164
940.934	-18.77305
941.111	30.3782
941.288	42.66602
941.464	48.80992
941.641	32.42617
941.818	3.75461
941.995	38.57008
942.171	65.19367
942.348	-0.34133
942.525	67.24164
942.701	-2.3893
942.878	-0.34133
943.055	24.2343
943.231	-43.34867
943.408	-35.1568
943.584	-51.54055
943.761	13.99445
943.937	-57.68445
944.114	-35.1568
944.29	34.47414
944.467	46.76195
944.643	28.33023
944.82	46.76195
944.996	3.75461
945.173	-2.3893
945.349	-12.62914
945.525	1.70664
945.702	28.33023
945.878	65.19367
946.054	11.94648
946.231	57.0018
946.407	-6.48523
946.583	67.24164
946.759	-16.72508
946.936	24.2343
947.112	-14.67711
947.288	36.52211
947.464	18.09039
947.64	69.28961
947.816	-24.91695
947.992	30.3782
948.169	5.80258
948.345	-10.58117
948.521	5.80258
948.697	5.80258
948.873	9.89852
949.049	-2.3893
949.225	40.61805
949.401	-12.62914
949.577	28.33023
949.753	87.72133
949.929	-20.82102
950.104	13.99445
950.28	-24.91695
950.456	36.52211
950.632	-10.58117
950.808	34.47414
950.984	1.70664
951.159	48.80992
951.335	-24.91695
951.511	-43.34867
951.687	44.71398
951.862	26.28227
952.038	-41.3007
952.214	-4.43727
952.39	-4.43727
952.565	26.28227
952.741	81.57742
952.916	-31.06086
953.092	44.71398
953.268	61.09773
953.443	-47.44461
953.619	69.28961
953.794	26.28227
953.97	-16.72508
954.145	3.75461
954.321	-14.67711
954.496	-8.5332
954.672	48.80992
954.847	13.99445
955.022	-20.82102
955.198	61.09773
955.373	13.99445
955.548	52.90586
955.724	9.89852
955.899	-41.3007
956.074	32.42617
956.25	65.19367
956.425	-14.67711
956.6	-10.58117
956.775	32.42617
956.951	-20.82102
957.126	44.71398
957.301	-10.58117
957.476	3.75461
957.651	-4.43727
957.826	-10.58117
958.001	9.89852
958.176	65.19367
958.352	22.18633
958.527	-16.72508
958.702	-37.20477
958.877	63.1457
959.052	59.04977
959.227	-8.5332
959.401	42.66602
959.576	46.76195
959.751	7.85055
959.926	-0.34133
960.101	26.28227
960.276	-37.20477
960.451	-0.34133
960.626	22.18633
960.8	32.42617
960.975	16.04242
961.15	61.09773
961.325	36.52211
961.499	-2.3893
961.674	3.75461
961.849	-26.96492
962.023	-8.5332
962.198	-22.86898
962.373	57.0018
962.547	32.42617
962.722	-14.67711
962.897	7.85055
963.071	52.90586
963.246	13.99445
963.42	32.42617
963.595	61.09773
963.769	-8.5332
963.944	18.09039
964.118	30.3782
964.293	22.18633
964.467	9.89852
964.641	40.61805
964.816	67.24164
964.99	57.0018
965.165	5.80258
965.339	-8.5332
965.513	5.80258
965.687	3.75461
965.862	40.61805
966.036	20.13836
966.21	-0.34133
966.384	1.70664
966.559	-10.58117
966.733	1.70664
966.907	48.80992
967.081	-16.72508
967.255	36.52211
967.429	79.52945
967.604	5.80258
967.778	26.28227
967.952	-2.3893
968.126	61.09773
968.3	-6.48523
968.474	-33.10883
968.648	-6.48523
968.822	32.42617
968.996	-35.1568
969.17	1.70664
969.343	59.04977
969.517	50.85789
969.691	11.94648
969.865	22.18633
970.039	95.9132
970.213	-22.86898
970.387	44.71398
970.56	-8.5332
970.734	40.61805
970.908	28.33023
971.082	71.33758
971.255	26.28227
971.429	52.90586
971.603	30.3782
971.776	16.04242
971.95	89.7693
972.124	28.33023
972.297	-31.06086
972.471	32.42617
972.644	57.0018
972.818	3.75461
972.991	22.18633
973.165	16.04242
973.338	102.05711
973.512	40.61805
973.685	3.75461
973.859	13.99445
974.032	81.57742
974.206	48.80992
974.379	-0.34133
974.552	5.80258
974.726	7.85055
974.899	-2.3893
975.072	-4.43727
975.246	3.75461
975.419	-29.01289
975.592	40.61805
975.765	7.85055
975.939	-4.43727
976.112	11.94648
976.285	50.85789
976.458	24.2343
976.631	30.3782
976.804	3.75461
976.977	-12.62914
977.151	20.13836
977.324	57.0018
977.497	-10.58117
977.67	48.80992
977.843	81.57742
978.016	-37.20477
978.189	44.71398
978.362	-4.43727
978.535	-14.67711
978.707	40.61805
978.88	-4.43727
979.053	3.75461
979.226	97.96117
979.399	13.99445
979.572	63.1457
979.745	34.47414
979.917	13.99445
980.09	-43.34867
980.263	-29.01289
980.436	-49.49258
980.608	16.04242
980.781	-49.49258
980.954	18.09039
981.126	13.99445
981.299	54.95383
981.472	-20.82102
981.644	140.96852
981.817	-12.62914
981.989	-12.62914
982.162	61.09773
982.335	11.94648
982.507	112.29695
982.68	-20.82102
982.852	-8.5332
983.024	5.80258
983.197	-20.82102
983.369	32.42617
983.542	-31.06086
983.714	54.95383
983.886	-2.3893
984.059	-29.01289
984.231	36.52211
984.403	57.0018
984.576	-4.43727
984.748	11.94648
984.92	11.94648
985.093	-18.77305
985.265	108.20102
985.437	18.09039
985.609	3.75461
985.781	-43.34867
985.953	26.28227
986.126	26.28227
986.298	-16.72508
986.47	-12.62914
986.642	22.18633
986.814	44.71398
986.986	-18.77305
987.158	20.13836
987.33	71.33758
987.502	20.13836
987.674	44.71398
987.846	59.04977
988.018	28.33023
988.19	-2.3893
988.361	-39.25273
988.533	-31.06086
988.705	24.2343
988.877	-39.25273
989.049	-29.01289
989.221	61.09773
989.392	44.71398
989.564	-29.01289
989.736	54.95383
989.908	42.66602
990.079	13.99445
990.251	50.85789
990.423	22.18633
990.594	-47.44461
990.766	50.85789
990.937	-37.20477
991.109	13.99445
991.281	-24.91695
991.452	-12.62914
991.624	-6.48523
991.795	-22.86898
991.967	38.57008
992.138	9.89852
992.31	20.13836
992.481	-8.5332
992.652	24.2343
992.824	40.61805
992.995	44.71398
993.167	24.2343
993.338	36.52211
993.509	26.28227
993.681	-6.48523
993.852	30.3782
994.023	-4.43727
994.194	-2.3893
994.366	38.57008
994.537	46.76195
994.708	13.99445
994.879	71.33758
995.05	24.2343
995.221	59.04977
995.393	-29.01289
995.564	61.09773
995.735	75.43352
995.906	54.95383
996.077	59.04977
996.248	69.28961
996.419	7.85055
996.59	-51.54055
996.761	5.80258
996.932	50.85789
997.103	57.0018
997.274	-0.34133
997.444	-20.82102
997.615	20.13836
997.786	48.80992
997.957	-8.5332
998.128	54.95383
998.299	-37.20477
998.469	-0.34133
998.64	50.85789
998.811	-47.44461
998.982	42.66602
999.152	22.18633
999.323	65.19367
999.494	9.89852
999.664	-16.72508
999.835	67.24164
1000.006	81.57742
1000.176	1.70664
1000.347	26.28227
1000.517	-69.97227
1000.688	-29.01289
1000.858	13.99445
1001.029	42.66602
1001.199	44.71398
1001.37	-12.62914
1001.54	24.2343
1001.711	13.99445
1001.881	20.13836
1002.051	93.86523
1002.222	-0.34133
1002.392	48.80992
1002.562	-45.39664
1002.733	54.95383
1002.903	-53.58852
1003.073	-55.63648
1003.244	3.75461
1003.414	5.80258
1003.584	7.85055
1003.754	-10.58117
1003.924	-26.96492
1004.094	108.20102
1004.265	18.09039
1004.435	-33.10883
1004.605	36.52211
1004.775	28.33023
1004.945	-37.20477
1005.115	54.95383
1005.285	61.09773
1005.455	38.57008
1005.625	-26.96492
1005.795	13.99445
1005.965	13.99445
1006.135	38.57008
1006.305	-6.48523
1006.475	57.0018
1006.645	5.80258
1006.814	7.85055
1006.984	75.43352
1007.154	26.28227
1007.324	-10.58117
1007.494	52.90586
1007.663	91.81727
1007.833	69.28961
1008.003	34.47414
1008.172	18.09039
1008.342	34.47414
1008.512	-10.58117
1008.681	-4.43727
1008.851	-31.06086
1009.021	16.04242
1009.19	54.95383
1009.36	-65.87633
1009.529	38.57008
1009.699	30.3782
1009.868	77.48148
1010.038	-37.20477
1010.207	-35.1568
1010.377	5.80258
1010.546	34.47414
1010.716	20.13836
1010.885	30.3782
1011.054	44.71398
1011.224	75.43352
1011.393	61.09773
1011.562	-22.86898
1011.732	1.70664
1011.901	1.70664
1012.07	-8.5332
1012.24	42.66602
1012.409	52.90586
1012.578	-0.34133
1012.747	-6.48523
1012.916	30.3782
1013.085	-33.10883
1013.255	-31.06086
1013.424	81.57742
1013.593	-4.43727
1013.762	-65.87633
1013.931	20.13836
1014.1	30.3782
1014.269	-31.06086
1014.438	26.28227
1014.607	34.47414
1014.776	46.76195
1014.945	13.99445
1015.114	3.75461
1015.283	9.89852
1015.451	-76.11617
1015.62	75.43352
1015.789	-12.62914
1015.958	73.38555
1016.127	-43.34867
1016.296	11.94648
1016.464	32.42617
1016.633	18.09039
1016.802	48.80992
1016.971	-53.58852
1017.139	3.75461
1017.308	34.47414
1017.477	-10.58117
1017.645	-69.97227
1017.814	28.33023
1017.982	-22.86898
1018.151	18.09039
1018.319	-0.34133
1018.488	67.24164
1018.657	13.99445
1018.825	54.95383
1018.993	28.33023
1019.162	52.90586
1019.33	61.09773
1019.499	1.70664
1019.667	-16.72508
1019.836	5.80258
1020.004	7.85055
1020.172	-37.20477
1020.341	11.94648
1020.509	54.95383
1020.677	91.81727
1020.845	9.89852
1021.014	-16.72508
1021.182	-18.77305
1021.35	16.04242
1021.518	-22.86898
1021.686	79.52945
1021.855	48.80992
1022.023	36.52211
1022.191	24.2343
1022.359	83.62539
1022.527	24.2343
1022.695	61.09773
1022.863	30.3782
1023.031	7.85055
1023.199	7.85055
1023.367	-14.67711
1023.535	40.61805
1023.703	-74.0682
1023.871	11.94648
1024.039	-31.06086
1024.207	54.95383
1024.375	20.13836
1024.542	13.99445
1024.71	-26.96492
1024.878	-31.06086
1025.046	9.89852
1025.213	9.89852
1025.381	48.80992
1025.549	22.18633
1025.717	5.80258
1025.884	16.04242
1026.052	85.67336
1026.22	5.80258
1026.387	-43.34867
1026.555	-4.43727
1026.722	16.04242
1026.89	11.94648
1027.058	30.3782
1027.225	40.61805
1027.393	67.24164
1027.56	28.33023
1027.728	-0.34133
1027.895	-33.10883
1028.062	-37.20477
1028.23	-14.67711
1028.397	36.52211
1028.565	28.33023
1028.732	-6.48523
1028.899	40.61805
1029.067	28.33023
1029.234	-31.06086
1029.401	-16.72508
1029.568	11.94648
1029.736	52.90586
1029.903	32.42617
1030.07	75.43352
1030.237	20.13836
1030.404	50.85789
1030.572	13.99445
1030.739	22.18633
1030.906	42.66602
1031.073	26.28227
1031.24	-0.34133
1031.407	-10.58117
1031.574	50.85789
1031.741	28.33023
1031.908	-39.25273
1032.075	34.47414
1032.242	18.09039
1032.409	3.75461
1032.576	75.43352
1032.743	65.19367
1032.91	11.94648
1033.076	-4.43727
1033.243	48.80992
1033.41	1.70664
1033.577	3.75461
1033.744	-0.34133
1033.91	24.2343
1034.077	7.85055
1034.244	1.70664
1034.41	-0.34133
1034.577	-26.96492
1034.744	26.28227
1034.91	30.3782
1035.077	30.3782
1035.244	11.94648
1035.41	-16.72508
1035.577	22.18633
1035.743	7.85055
1035.91	-12.62914
1036.076	79.52945
1036.243	-4.43727
1036.409	20.13836
1036.576	34.47414
1036.742	-63.82836
1036.908	48.80992
1037.075	61.09773
1037.241	-16.72508
1037.408	3.75461
1037.574	-31.06086
1037.74	20.13836
1037.906	-57.68445
1038.073	24.2343
1038.239	30.3782
1038.405	38.57008
1038.571	-14.67711
1038.738	61.09773
1038.904	-10.58117
1039.07	-59.73242
1039.236	1.70664
1039.402	-16.72508
1039.568	-33.10883
1039.734	77.48148
1039.9	18.09039
1040.066	36.52211
1040.232	40.61805
1040.398	9.89852
1040.564	-8.5332
1040.73	5.80258
1040.896	-6.48523
1041.062	11.94648
1041.228	59.04977
1041.394	77.48148
1041.56	46.76195
1041.725	48.80992
1041.891	20.13836
1042.057	-57.68445
1042.223	28.33023
1042.389	57.0018
1042.554	-4.43727
1042.72	-14.67711
1042.886	26.28227
1043.051	-12.62914
1043.217	40.61805
1043.383	40.61805
1043.548	-14.67711
1043.714	32.42617
1043.879	3.75461
1044.045	-20.82102
1044.21	34.47414
1044.376	83.62539
1044.541	61.09773
1044.707	5.80258
1044.872	-0.34133
1045.038	67.24164
1045.203	-55.63648
1045.369	13.99445
1045.534	59.04977
1045.699	81.57742
1045.865	38.57008
1046.03	89.7693
1046.195	57.0018
1046.361	44.71398
1046.526	63.1457
1046.691	3.75461
1046.856	18.09039
1047.021	-8.5332
1047.187	-14.67711
1047.352	-35.1568
1047.517	16.04242
1047.682	83.62539
1047.847	20.13836
1048.012	20.13836
1048.177	-24.91695
1048.342	-18.77305
1048.507	-90.45195
1048.672	7.85055
1048.837	-18.77305
1049.002	-4.43727
1049.167	-4.43727
1049.332	-22.86898
1049.497	-14.67711
1049.662	36.52211
1049.827	24.2343
1049.992	-16.72508
1050.156	-49.49258
1050.321	36.52211
1050.486	-14.67711
1050.651	48.80992
1050.816	20.13836
1050.98	-8.5332
1051.145	5.80258
1051.31	28.33023
1051.474	54.95383
1051.639	-47.44461
1051.804	13.99445
1051.968	32.42617
1052.133	85.67336
1052.297	36.52211
1052.462	20.13836
1052.626	11.94648
1052.791	-0.34133
1052.955	-10.58117
1053.12	-47.44461
1053.284	-14.67711
1053.449	40.61805
1053.613	3.75461
1053.777	26.28227
1053.942	46.76195
1054.106	22.18633
1054.27	57.0018
1054.435	-22.86898
1054.599	32.42617
1054.763	71.33758
1054.928	22.18633
1055.092	13.99445
1055.256	26.28227
1055.42	42.66602
1055.584	-6.48523
1055.748	-8.5332
1055.913	-20.82102
1056.077	-57.68445
1056.241	-24.91695
1056.405	36.52211
1056.569	36.52211
1056.733	-12.62914
1056.897	42.66602
1057.061	-2.3893
1057.225	79.52945
1057.389	-0.34133
1057.553	-0.34133
1057.717	63.1457
1057.88	5.80258
1058.044	-33.10883
1058.208	3.75461
1058.372	-39.25273
1058.536	102.05711
1058.7	36.52211
1058.863	87.72133
1059.027	-8.5332
1059.191	57.0018
1059.355	-22.86898
1059.518	63.1457
1059.682	-6.48523
1059.846	7.85055
1060.009	-2.3893
1060.173	3.75461
1060.336	-0.34133
1060.5	-16.72508
1060.663	-4.43727
1060.827	91.81727
1060.99	1.70664
1061.154	38.57008
1061.317	-41.3007
1061.481	57.0018
1061.644	-47.44461
1061.808	-4.43727
1061.971	1.70664
1062.134	36.52211
1062.298	59.04977
1062.461	18.09039
1062.624	30.3782
1062.788	13.99445
1062.951	-0.34133
1063.114	16.04242
1063.277	9.89852
1063.441	26.28227
1063.604	116.39289
1063.767	-43.34867
1063.93	11.94648
1064.093	-18.77305
1064.256	3.75461
1064.419	3.75461
1064.582	75.43352
1064.745	-45.39664
1064.908	20.13836
1065.071	11.94648
1065.234	-31.06086
1065.397	52.90586
1065.56	-41.3007
1065.723	22.18633
1065.886	9.89852
1066.049	1.70664
1066.212	5.80258
1066.375	9.89852
1066.537	-35.1568
1066.7	36.52211
1066.863	-74.0682
1067.026	69.28961
1067.189	46.76195
1067.351	-55.63648
1067.514	-20.82102
1067.677	20.13836
1067.839	-0.34133
1068.002	81.57742
1068.165	61.09773
1068.327	3.75461
1068.49	13.99445
1068.652	16.04242
1068.815	89.7693
1068.977	-59.73242
1069.14	108.20102
1069.302	-6.48523
1069.465	1.70664
1069.627	-53.58852
1069.79	34.47414
1069.952	24.2343
1070.114	-41.3007
1070.277	-12.62914
1070.439	34.47414
1070.601	34.47414
1070.764	11.94648
1070.926	63.1457
1071.088	50.85789
1071.25	22.18633
1071.413	1.70664
1071.575	71.33758
1071.737	-43.34867
1071.899	-4.43727
1072.061	-29.01289
1072.223	18.09039
1072.385	67.24164
1072.547	61.09773
1072.71	3.75461
1072.872	18.09039
1073.034	-18.77305
1073.196	-20.82102
1073.358	-41.3007
1073.519	-8.5332
1073.681	-18.77305
1073.843	13.99445
1074.005	-0.34133
1074.167	26.28227
1074.329	48.80992
1074.491	-6.48523
1074.652	3.75461
1074.814	40.61805
1074.976	36.52211
1075.138	34.47414
1075.299	-16.72508
1075.461	89.7693
1075.623	-8.5332
1075.785	24.2343
1075.946	22.18633
1076.108	93.86523
1076.269	24.2343
1076.431	-26.96492
1076.593	61.09773
1076.754	1.70664
1076.916	40.61805
1077.077	-0.34133
1077.239	-14.67711
1077.4	46.76195
1077.561	44.71398
1077.723	22.18633
1077.884	-55.63648
1078.046	-88.40398
1078.207	118.44086
1078.368	-12.62914
1078.53	-8.5332
1078.691	32.42617
1078.852	54.95383
1079.013	36.52211
1079.175	11.94648
1079.336	-31.06086
1079.497	50.85789
1079.658	59.04977
1079.819	-16.72508
1079.981	-2.3893
1080.142	-16.72508
1080.303	-22.86898
1080.464	-59.73242
1080.625	42.66602
1080.786	87.72133
1080.947	-8.5332
1081.108	-8.5332
1081.269	67.24164
1081.43	9.89852
1081.591	9.89852
1081.752	46.76195
1081.912	18.09039
1082.073	20.13836
1082.234	44.71398
1082.395	-2.3893
1082.556	38.57008
1082.717	-6.48523
1082.877	-20.82102
1083.038	34.47414
1083.199	-31.06086
1083.359	20.13836
1083.52	36.52211
1083.681	-35.1568
1083.841	-12.62914
1084.002	44.71398
1084.163	81.57742
1084.323	5.80258
1084.484	93.86523
1084.644	52.90586
1084.805	16.04242
1084.965	20.13836
1085.126	18.09039
1085.286	-4.43727
1085.447	-53.58852
1085.607	-35.1568
1085.767	30.3782
1085.928	3.75461
1086.088	-29.01289
1086.249	18.09039
1086.409	18.09039
1086.569	-8.5332
1086.729	-53.58852
1086.89	-37.20477
1087.05	-4.43727
1087.21	-45.39664
1087.37	89.7693
1087.53	65.19367
1087.691	-4.43727
1087.851	28.33023
1088.011	67.24164
1088.171	22.18633
1088.331	48.80992
1088.491	22.18633
1088.651	46.76195
1088.811	-8.5332
1088.971	32.42617
1089.131	28.33023
1089.291	20.13836
1089.451	38.57008
1089.611	50.85789
1089.771	85.67336
1089.93	3.75461
1090.09	-49.49258
1090.25	26.28227
1090.41	75.43352
1090.57	-41.3007
1090.729	46.76195
1090.889	69.28961
1091.049	32.42617
1091.208	91.81727
1091.368	34.47414
1091.528	-22.86898
1091.687	-29.01289
1091.847	71.33758
1092.007	26.28227
1092.166	52.90586
1092.326	-2.3893
1092.485	3.75461
1092.645	-20.82102
1092.804	63.1457
1092.964	-6.48523
1093.123	134.82461
1093.282	40.61805
1093.442	52.90586
1093.601	-0.34133
1093.761	34.47414
1093.92	38.57008
1094.079	9.89852
1094.239	11.94648
1094.398	69.28961
1094.557	61.09773
1094.716	18.09039
1094.876	-41.3007
1095.035	11.94648
1095.194	77.48148
1095.353	3.75461
1095.512	44.71398
1095.671	-4.43727
1095.83	-14.67711
1095.989	24.2343
1096.148	63.1457
1096.307	18.09039
1096.466	-29.01289
1096.625	-35.1568
1096.784	30.3782
1096.943	11.94648
1097.102	-16.72508
1097.261	75.43352
1097.42	-10.58117
1097.579	20.13836
1097.738	-24.91695
1097.897	20.13836
1098.055	57.0018
1098.214	59.04977
1098.373	1.70664
1098.532	7.85055
1098.69	5.80258
1098.849	20.13836
1099.008	34.47414
1099.166	-45.39664
1099.325	-8.5332
1099.484	3.75461
1099.642	5.80258
1099.801	-20.82102
1099.959	-26.96492
1100.118	38.57008
1100.276	50.85789
1100.435	24.2343
1100.593	13.99445
1100.752	71.33758
1100.91	1.70664
1101.068	59.04977
1101.227	3.75461
1101.385	1.70664
1101.544	32.42617
1101.702	36.52211
1101.86	18.09039
1102.018	13.99445
1102.177	-8.5332
1102.335	20.13836
1102.493	-41.3007
1102.651	-35.1568
1102.809	57.0018
1102.968	-4.43727
1103.126	42.66602
1103.284	7.85055
1103.442	30.3782
1103.6	-39.25273
1103.758	-39.25273
1103.916	71.33758
1104.074	63.1457
1104.232	73.38555
1104.39	16.04242
1104.548	20.13836
1104.706	32.42617
1104.864	7.85055
1105.022	20.13836
1105.179	32.42617
1105.337	22.18633
1105.495	3.75461
1105.653	20.13836
1105.811	-16.72508
1105.968	24.2343
1106.126	-4.43727
1106.284	-37.20477
1106.441	-2.3893
1106.599	20.13836
1106.757	34.47414
1106.914	20.13836
1107.072	-65.87633
1107.23	-20.82102
1107.387	-4.43727
1107.545	-53.58852
1107.702	67.24164
1107.86	18.09039
1108.017	89.7693
1108.175	87.72133
1108.332	-41.3007
1108.489	20.13836
1108.647	61.09773
1108.804	22.18633
1108.962	5.80258
1109.119	73.38555
1109.276	36.52211
1109.433	48.80992
1109.591	-51.54055
1109.748	32.42617
1109.905	52.90586
1110.062	-0.34133
1110.22	22.18633
1110.377	18.09039
1110.534	38.57008
1110.691	-16.72508
1110.848	-2.3893
1111.005	7.85055
1111.162	-18.77305
1111.319	-37.20477
1111.476	54.95383
1111.633	-37.20477
1111.79	36.52211
1111.947	18.09039
1112.104	-0.34133
1112.261	24.2343
1112.418	38.57008
1112.575	3.75461
1112.732	5.80258
1112.888	38.57008
1113.045	20.13836
1113.202	36.52211
1113.359	-39.25273
1113.515	138.92055
1113.672	34.47414
1113.829	11.94648
1113.985	1.70664
1114.142	-0.34133
1114.299	-12.62914
1114.455	40.61805
1114.612	20.13836
1114.769	97.96117
1114.925	61.09773
1115.082	59.04977
1115.238	-2.3893
1115.395	7.85055
1115.551	-10.58117
1115.707	26.28227
1115.864	-10.58117
1116.02	73.38555
1116.177	85.67336
1116.333	-0.34133
1116.489	9.89852
1116.646	-31.06086
1116.802	54.95383
1116.958	50.85789
1117.114	-37.20477
1117.271	-74.0682
1117.427	5.80258
1117.583	26.28227
1117.739	-12.62914
1117.895	50.85789
1118.051	26.28227
1118.208	-10.58117
1118.364	-41.3007
1118.52	48.80992
1118.676	34.47414
1118.832	85.67336
1118.988	69.28961
1119.144	-14.67711
1119.3	-0.34133
1119.456	30.3782
1119.611	61.09773
1119.767	-18.77305
1119.923	22.18633
1120.079	-26.96492
1120.235	13.99445
1120.391	-10.58117
1120.546	13.99445
1120.702	3.75461
1120.858	13.99445
1121.014	-24.91695
1121.169	18.09039
1121.325	26.28227
1121.481	-6.48523
1121.636	-6.48523
1121.792	32.42617
1121.947	-0.34133
1122.103	-0.34133
1122.259	-14.67711
1122.414	28.33023
1122.57	16.04242
1122.725	50.85789
1122.881	-20.82102
1123.036	5.80258
1123.191	20.13836
1123.347	46.76195
1123.502	-33.10883
1123.657	-39.25273
1123.813	22.18633
1123.968	-22.86898
1124.123	20.13836
1124.279	26.28227
1124.434	-41.3007
1124.589	-51.54055
1124.744	9.89852
1124.9	-20.82102
1125.055	75.43352
1125.21	36.52211
1125.365	32.42617
1125.52	40.61805
1125.675	-33.10883
1125.83	30.3782
1125.985	52.90586
1126.14	20.13836
1126.295	-57.68445
1126.45	93.86523
1126.605	-6.48523
