Data from uniphase1023p_USB4C031521__0__12-07-47-856.txt Node

Date: Wed May 06 12:07:47 CEST 2026
User: FIDOPA_3
Spectrometer: USB4C03152
Scans to average: 1
Trigger mode: 4
Integration Time (sec): 1.000000E-5
Electric dark correction enabled: true
Boxcar width: 0
XAxis mode: Wavelengths
Number of Pixels in Spectrum: 3648
>>>>>Begin Spectral Data<<<<<
445.929	29.18355
446.14	29.18355
446.351	29.18355
446.562	-38.39941
446.773	-44.54332
446.984	39.4234
447.194	-69.11895
447.405	39.4234
447.616	-28.15957
447.827	43.51934
448.038	53.75918
448.249	-50.68723
448.459	41.47137
448.67	-40.44738
448.881	4.60793
449.092	18.94371
449.303	-52.7352
449.513	-124.4141
449.724	-26.1116
449.935	-48.63926
450.146	76.28684
450.356	-58.8791
450.567	-58.8791
450.778	-24.06363
450.988	-5.63191
451.199	0.51199
451.41	-62.97504
451.62	-81.40676
451.831	-54.78316
452.042	-1.53598
452.252	-7.67988
452.463	0.51199
452.674	-60.92707
452.884	-69.11895
453.095	-17.91973
453.305	-15.87176
453.516	10.75184
453.727	-36.35145
453.937	-22.01566
454.148	-79.35879
454.358	-101.88645
454.569	-30.20754
454.779	-26.1116
454.99	-79.35879
455.2	4.60793
455.411	6.6559
455.621	20.99168
455.832	-60.92707
456.042	16.89574
456.253	-34.30348
456.463	-48.63926
456.674	-24.06363
456.884	10.75184
457.095	6.6559
457.305	-9.72785
457.515	23.03965
457.726	-22.01566
457.936	-77.31082
458.147	-56.83113
458.357	-48.63926
458.567	-28.15957
458.778	-36.35145
458.988	14.84777
459.198	-19.9677
459.409	-36.35145
459.619	4.60793
459.829	-58.8791
460.039	16.89574
460.25	-75.26285
460.46	-38.39941
460.67	39.4234
460.881	-13.82379
461.091	53.75918
461.301	-116.22223
461.511	-89.59863
461.721	57.85512
461.932	-22.01566
462.142	-22.01566
462.352	-95.74254
462.562	39.4234
462.772	-32.25551
462.983	-48.63926
463.193	10.75184
463.403	-19.9677
463.613	-15.87176
463.823	-97.79051
464.033	-52.7352
464.243	-22.01566
464.453	10.75184
464.664	-85.5027
464.874	-60.92707
465.084	-15.87176
465.294	-3.58395
465.504	-1.53598
465.714	-91.6466
465.924	20.99168
466.134	-50.68723
466.344	-75.26285
466.554	-38.39941
466.764	6.6559
466.974	-30.20754
467.184	-54.78316
467.394	-44.54332
467.604	10.75184
467.814	-40.44738
468.024	-36.35145
468.233	-101.88645
468.443	20.99168
468.653	-77.31082
468.863	4.60793
469.073	-38.39941
469.283	0.51199
469.493	23.03965
469.703	-65.02301
469.912	-60.92707
470.122	18.94371
470.332	0.51199
470.542	-24.06363
470.752	-11.77582
470.962	-34.30348
471.171	-9.72785
471.381	-24.06363
471.591	6.6559
471.801	-38.39941
472.01	25.08762
472.22	-65.02301
472.43	-132.60598
472.64	-85.5027
472.849	-50.68723
473.059	-40.44738
473.269	2.55996
473.478	16.89574
473.688	4.60793
473.898	-9.72785
474.107	-11.77582
474.317	-15.87176
474.527	-11.77582
474.736	-1.53598
474.946	-30.20754
475.155	-1.53598
475.365	-15.87176
475.575	-36.35145
475.784	-38.39941
475.994	-48.63926
476.203	31.23152
476.413	-65.02301
476.622	-75.26285
476.832	2.55996
477.041	-36.35145
477.251	29.18355
477.46	39.4234
477.67	-11.77582
477.879	4.60793
478.089	-62.97504
478.298	-19.9677
478.508	35.32746
478.717	37.37543
478.927	-19.9677
479.136	-5.63191
479.345	-58.8791
479.555	-71.16691
479.764	-65.02301
479.974	-15.87176
480.183	66.04699
480.392	-19.9677
480.602	-24.06363
480.811	-60.92707
481.02	-40.44738
481.23	25.08762
481.439	-19.9677
481.648	16.89574
481.858	12.7998
482.067	-50.68723
482.276	-28.15957
482.485	-50.68723
482.695	8.70387
482.904	-122.36613
483.113	-34.30348
483.322	-48.63926
483.532	-28.15957
483.741	-34.30348
483.95	-60.92707
484.159	-58.8791
484.368	-28.15957
484.577	12.7998
484.787	-128.51004
484.996	-48.63926
485.205	-5.63191
485.414	-24.06363
485.623	8.70387
485.832	-13.82379
486.041	-15.87176
486.25	-56.83113
486.459	-58.8791
486.669	-56.83113
486.878	-22.01566
487.087	-56.83113
487.296	-7.67988
487.505	6.6559
487.714	-69.11895
487.923	-5.63191
488.132	-50.68723
488.341	-44.54332
488.55	-44.54332
488.759	12.7998
488.968	-11.77582
489.177	4.60793
489.385	35.32746
489.594	-9.72785
489.803	-24.06363
490.012	-69.11895
490.221	55.80715
490.43	-15.87176
490.639	-24.06363
490.848	-7.67988
491.057	2.55996
491.265	-32.25551
491.474	55.80715
491.683	23.03965
491.892	-28.15957
492.101	-19.9677
492.31	-56.83113
492.518	-73.21488
492.727	0.51199
492.936	51.71121
493.145	14.84777
493.353	-19.9677
493.562	-1.53598
493.771	-58.8791
493.98	25.08762
494.188	10.75184
494.397	57.85512
494.606	-60.92707
494.814	-13.82379
495.023	-54.78316
495.232	47.61527
495.44	-48.63926
495.649	-11.77582
495.858	14.84777
496.066	-36.35145
496.275	2.55996
496.483	31.23152
496.692	-30.20754
496.901	-3.58395
497.109	-34.30348
497.318	-19.9677
497.526	-44.54332
497.735	-46.59129
497.943	6.6559
498.152	25.08762
498.36	-38.39941
498.569	-97.79051
498.777	-44.54332
498.986	0.51199
499.194	4.60793
499.403	-1.53598
499.611	20.99168
499.82	6.6559
500.028	-22.01566
500.236	-34.30348
500.445	-42.49535
500.653	-54.78316
500.862	29.18355
501.07	4.60793
501.278	16.89574
501.487	-13.82379
501.695	-34.30348
501.903	-101.88645
502.112	-34.30348
502.32	-60.92707
502.528	-46.59129
502.737	-65.02301
502.945	23.03965
503.153	-38.39941
503.361	-40.44738
503.57	-40.44738
503.778	70.14293
503.986	-38.39941
504.194	45.5673
504.403	-73.21488
504.611	-48.63926
504.819	23.03965
505.027	-42.49535
505.235	-62.97504
505.443	-19.9677
505.652	-65.02301
505.86	-26.1116
506.068	8.70387
506.276	6.6559
506.484	-50.68723
506.692	-34.30348
506.9	-42.49535
507.108	-24.06363
507.316	-30.20754
507.524	12.7998
507.733	-48.63926
507.941	-3.58395
508.149	-9.72785
508.357	-93.69457
508.565	8.70387
508.773	-32.25551
508.981	-34.30348
509.189	14.84777
509.397	-32.25551
509.605	27.13559
509.812	-1.53598
510.02	45.5673
510.228	-15.87176
510.436	-5.63191
510.644	16.89574
510.852	16.89574
511.06	-40.44738
511.268	47.61527
511.476	-7.67988
511.684	-50.68723
511.891	-54.78316
512.099	4.60793
512.307	8.70387
512.515	-58.8791
512.723	-24.06363
512.93	-11.77582
513.138	-26.1116
513.346	-52.7352
513.554	-52.7352
513.761	43.51934
513.969	16.89574
514.177	29.18355
514.385	-93.69457
514.592	-38.39941
514.8	-32.25551
515.008	31.23152
515.215	14.84777
515.423	4.60793
515.631	66.04699
515.838	-22.01566
516.046	41.47137
516.254	-24.06363
516.461	-3.58395
516.669	-15.87176
516.876	-38.39941
517.084	18.94371
517.292	-81.40676
517.499	-44.54332
517.707	-69.11895
517.914	-52.7352
518.122	-24.06363
518.329	-52.7352
518.537	-54.78316
518.744	23.03965
518.952	-42.49535
519.159	-69.11895
519.367	2.55996
519.574	20.99168
519.782	-60.92707
519.989	0.51199
520.197	16.89574
520.404	-75.26285
520.611	-32.25551
520.819	47.61527
521.026	-42.49535
521.234	29.18355
521.441	-24.06363
521.648	-58.8791
521.856	-1.53598
522.063	-103.93441
522.27	-24.06363
522.478	-36.35145
522.685	39.4234
522.892	-34.30348
523.1	4.60793
523.307	-34.30348
523.514	-69.11895
523.721	14.84777
523.929	-30.20754
524.136	0.51199
524.343	8.70387
524.55	41.47137
524.757	-50.68723
524.965	-44.54332
525.172	8.70387
525.379	-105.98238
525.586	-52.7352
525.793	-15.87176
526	-60.92707
526.208	-1.53598
526.415	-3.58395
526.622	-75.26285
526.829	-5.63191
527.036	-52.7352
527.243	2.55996
527.45	2.55996
527.657	-17.91973
527.864	-24.06363
528.071	-42.49535
528.278	-42.49535
528.485	23.03965
528.692	-1.53598
528.899	-60.92707
529.106	-56.83113
529.313	0.51199
529.52	-22.01566
529.727	-140.79785
529.934	-69.11895
530.141	-9.72785
530.348	-40.44738
530.555	-7.67988
530.762	20.99168
530.968	-15.87176
531.175	-30.20754
531.382	-26.1116
531.589	41.47137
531.796	23.03965
532.003	-65.02301
532.21	18.94371
532.416	82.43074
532.623	-67.07098
532.83	-3.58395
533.037	-34.30348
533.243	-24.06363
533.45	-26.1116
533.657	-11.77582
533.864	-15.87176
534.07	-19.9677
534.277	-56.83113
534.484	-54.78316
534.691	10.75184
534.897	-54.78316
535.104	-15.87176
535.311	-13.82379
535.517	37.37543
535.724	8.70387
535.93	-1.53598
536.137	-11.77582
536.344	-28.15957
536.55	6.6559
536.757	-42.49535
536.963	-26.1116
537.17	-17.91973
537.377	-38.39941
537.583	-38.39941
537.79	10.75184
537.996	-46.59129
538.203	-9.72785
538.409	-89.59863
538.616	6.6559
538.822	-40.44738
539.029	-71.16691
539.235	-38.39941
539.442	-28.15957
539.648	-28.15957
539.854	-22.01566
540.061	-11.77582
540.267	43.51934
540.474	-42.49535
540.68	20.99168
540.886	-46.59129
541.093	-26.1116
541.299	-13.82379
541.505	-11.77582
541.712	-46.59129
541.918	-60.92707
542.124	27.13559
542.331	-22.01566
542.537	-22.01566
542.743	-30.20754
542.949	-38.39941
543.156	-77.31082
543.362	0.51199
543.568	4.60793
543.774	12.7998
543.981	-9.72785
544.187	-5.63191
544.393	-3.58395
544.599	-11.77582
544.805	12.7998
545.011	2.55996
545.218	-7.67988
545.424	-17.91973
545.63	-56.83113
545.836	-24.06363
546.042	-50.68723
546.248	16.89574
546.454	-54.78316
546.66	2.55996
546.866	-50.68723
547.072	-56.83113
547.278	-97.79051
547.484	-15.87176
547.69	33.27949
547.896	33.27949
548.102	-9.72785
548.308	-36.35145
548.514	-46.59129
548.72	33.27949
548.926	-46.59129
549.132	-52.7352
549.338	-7.67988
549.544	-101.88645
549.75	2.55996
549.956	-24.06363
550.162	-44.54332
550.368	-48.63926
550.574	31.23152
550.779	-83.45473
550.985	-56.83113
551.191	-89.59863
551.397	-17.91973
551.603	49.66324
551.808	-19.9677
552.014	-62.97504
552.22	25.08762
552.426	-60.92707
552.632	-11.77582
552.837	-15.87176
553.043	-22.01566
553.249	6.6559
553.454	6.6559
553.66	-50.68723
553.866	-5.63191
554.071	-30.20754
554.277	-40.44738
554.483	53.75918
554.688	-28.15957
554.894	-7.67988
555.1	-11.77582
555.305	2.55996
555.511	-5.63191
555.716	31.23152
555.922	2.55996
556.128	-24.06363
556.333	4.60793
556.539	-1.53598
556.744	-58.8791
556.95	-75.26285
557.155	-7.67988
557.361	-22.01566
557.566	-46.59129
557.772	18.94371
557.977	-7.67988
558.183	-36.35145
558.388	-13.82379
558.594	-24.06363
558.799	2.55996
559.004	55.80715
559.21	-36.35145
559.415	-28.15957
559.621	-7.67988
559.826	-15.87176
560.031	-5.63191
560.237	0.51199
560.442	-69.11895
560.647	-50.68723
560.853	-48.63926
561.058	12.7998
561.263	29.18355
561.468	-50.68723
561.674	-5.63191
561.879	-22.01566
562.084	-40.44738
562.289	-9.72785
562.495	-38.39941
562.7	-46.59129
562.905	-19.9677
563.11	-52.7352
563.315	-101.88645
563.521	-56.83113
563.726	-48.63926
563.931	-9.72785
564.136	86.52668
564.341	-32.25551
564.546	-50.68723
564.751	-3.58395
564.956	-34.30348
565.162	-11.77582
565.367	53.75918
565.572	-28.15957
565.777	16.89574
565.982	29.18355
566.187	-17.91973
566.392	-13.82379
566.597	-19.9677
566.802	16.89574
567.007	51.71121
567.212	-9.72785
567.417	23.03965
567.622	-42.49535
567.827	-97.79051
568.031	-1.53598
568.236	-7.67988
568.441	-26.1116
568.646	-42.49535
568.851	0.51199
569.056	35.32746
569.261	-9.72785
569.466	-3.58395
569.67	-24.06363
569.875	-15.87176
570.08	33.27949
570.285	-7.67988
570.49	-17.91973
570.694	-19.9677
570.899	33.27949
571.104	-22.01566
571.309	14.84777
571.513	-34.30348
571.718	4.60793
571.923	31.23152
572.128	2.55996
572.332	-28.15957
572.537	-46.59129
572.742	-62.97504
572.946	-79.35879
573.151	-85.5027
573.355	-3.58395
573.56	-9.72785
573.765	-28.15957
573.969	18.94371
574.174	-3.58395
574.378	29.18355
574.583	-67.07098
574.788	-38.39941
574.992	-24.06363
575.197	-3.58395
575.401	-56.83113
575.606	-5.63191
575.81	27.13559
576.015	8.70387
576.219	2.55996
576.424	-13.82379
576.628	-15.87176
576.832	-24.06363
577.037	-50.68723
577.241	-79.35879
577.446	-65.02301
577.65	0.51199
577.854	-22.01566
578.059	16.89574
578.263	6.6559
578.467	-36.35145
578.672	-9.72785
578.876	-62.97504
579.08	-15.87176
579.285	-15.87176
579.489	29.18355
579.693	-7.67988
579.898	43.51934
580.102	-34.30348
580.306	-30.20754
580.51	-73.21488
580.715	20.99168
580.919	-58.8791
581.123	-32.25551
581.327	-38.39941
581.531	-112.12629
581.735	82.43074
581.94	41.47137
582.144	16.89574
582.348	-48.63926
582.552	18.94371
582.756	33.27949
582.96	10.75184
583.164	-34.30348
583.368	-46.59129
583.572	-56.83113
583.776	27.13559
583.98	33.27949
584.185	-38.39941
584.389	-26.1116
584.593	-36.35145
584.797	-11.77582
585	86.52668
585.204	-1.53598
585.408	-26.1116
585.612	-13.82379
585.816	25.08762
586.02	72.1909
586.224	-44.54332
586.428	4.60793
586.632	-30.20754
586.836	-24.06363
587.04	-65.02301
587.244	70.14293
587.447	-24.06363
587.651	-85.5027
587.855	-65.02301
588.059	92.67059
588.263	-19.9677
588.466	-50.68723
588.67	-11.77582
588.874	-44.54332
589.078	31.23152
589.281	-7.67988
589.485	-50.68723
589.689	14.84777
589.893	-11.77582
590.096	-48.63926
590.3	-71.16691
590.504	23.03965
590.707	-1.53598
590.911	-24.06363
591.115	27.13559
591.318	-40.44738
591.522	4.60793
591.725	-7.67988
591.929	-1.53598
592.133	-24.06363
592.336	25.08762
592.54	20.99168
592.743	39.4234
592.947	-28.15957
593.15	27.13559
593.354	-34.30348
593.557	-19.9677
593.761	-17.91973
593.964	-50.68723
594.168	8.70387
594.371	6.6559
594.575	-1.53598
594.778	14.84777
594.981	-9.72785
595.185	-46.59129
595.388	-15.87176
595.592	47.61527
595.795	-13.82379
595.998	10.75184
596.202	14.84777
596.405	25.08762
596.608	20.99168
596.812	16.89574
597.015	-19.9677
597.218	-17.91973
597.421	-56.83113
597.625	-13.82379
597.828	-1.53598
598.031	20.99168
598.234	14.84777
598.438	-30.20754
598.641	-24.06363
598.844	4.60793
599.047	-11.77582
599.25	-46.59129
599.453	0.51199
599.657	43.51934
599.86	16.89574
600.063	-1.53598
600.266	76.28684
600.469	-34.30348
600.672	29.18355
600.875	-44.54332
601.078	-40.44738
601.281	53.75918
601.484	-26.1116
601.687	-48.63926
601.89	41.47137
602.093	16.89574
602.296	16.89574
602.499	8.70387
602.702	72.1909
602.905	43.51934
603.108	-32.25551
603.311	-30.20754
603.514	-40.44738
603.717	-11.77582
603.92	135.67793
604.123	16.89574
604.326	-60.92707
604.529	-36.35145
604.731	35.32746
604.934	-13.82379
605.137	-32.25551
605.34	2.55996
605.543	33.27949
605.745	-15.87176
605.948	23.03965
606.151	45.5673
606.354	-15.87176
606.557	6.6559
606.759	-40.44738
606.962	-24.06363
607.165	-36.35145
607.367	-13.82379
607.57	8.70387
607.773	0.51199
607.975	23.03965
608.178	-1.53598
608.381	4.60793
608.583	55.80715
608.786	-42.49535
608.989	-5.63191
609.191	-22.01566
609.394	61.95105
609.596	-3.58395
609.799	16.89574
610.001	23.03965
610.204	-17.91973
610.406	25.08762
610.609	2.55996
610.811	12.7998
611.014	-11.77582
611.216	27.13559
611.419	37.37543
611.621	-22.01566
611.824	-7.67988
612.026	57.85512
612.229	2.55996
612.431	25.08762
612.633	-36.35145
612.836	-19.9677
613.038	29.18355
613.24	33.27949
613.443	80.38277
613.645	35.32746
613.847	-60.92707
614.05	14.84777
614.252	25.08762
614.454	25.08762
614.657	76.28684
614.859	-11.77582
615.061	8.70387
615.263	49.66324
615.466	41.47137
615.668	-26.1116
615.87	90.62262
616.072	-7.67988
616.274	45.5673
616.476	23.03965
616.679	53.75918
616.881	41.47137
617.083	57.85512
617.285	-36.35145
617.487	16.89574
617.689	33.27949
617.891	-19.9677
618.093	33.27949
618.295	-19.9677
618.497	29.18355
618.699	4.60793
618.901	-87.55066
619.103	4.60793
619.305	43.51934
619.507	12.7998
619.709	-54.78316
619.911	18.94371
620.113	37.37543
620.315	-26.1116
620.517	-1.53598
620.719	4.60793
620.921	98.81449
621.123	66.04699
621.325	27.13559
621.527	-22.01566
621.728	20.99168
621.93	4.60793
622.132	-15.87176
622.334	37.37543
622.536	35.32746
622.737	29.18355
622.939	49.66324
623.141	-24.06363
623.343	43.51934
623.544	23.03965
623.746	-7.67988
623.948	33.27949
624.15	68.09496
624.351	-32.25551
624.553	63.99902
624.755	127.48605
624.956	86.52668
625.158	184.82918
625.36	139.77387
625.561	127.48605
625.763	172.54137
625.964	92.67059
626.166	35.32746
626.367	117.24621
626.569	117.24621
626.771	131.58199
626.972	63.99902
627.174	129.53402
627.375	49.66324
627.577	145.91777
627.778	109.05434
627.98	94.71855
628.181	86.52668
628.382	35.32746
628.584	84.47871
628.785	150.01371
628.987	55.80715
629.188	113.15027
629.39	178.68527
629.591	141.82184
629.792	305.65934
629.994	295.41949
630.195	381.43418
630.396	418.29762
630.598	678.38965
630.799	1133.03871
631	4577.72215
631.201	13080.8884
631.403	33173.5098
631.604	58201.7359
631.805	64392.74543
632.006	64392.74543
632.208	60946.01402
632.409	48563.99496
632.61	41187.21152
632.811	33622.01496
633.012	30877.73684
633.214	25120.89668
633.415	16197.89684
633.616	8843.64105
633.817	4526.52293
634.018	2523.60949
634.219	1288.68434
634.42	805.36371
634.621	647.67012
634.822	563.7034
635.023	305.65934
635.224	401.91387
635.425	270.84387
635.626	223.74059
635.827	207.35684
636.028	139.77387
636.229	141.82184
636.43	156.15762
636.631	170.4934
636.832	49.66324
637.033	127.48605
637.234	111.1023
637.435	63.99902
637.636	59.90309
637.837	115.19824
638.037	49.66324
638.238	37.37543
638.439	47.61527
638.64	49.66324
638.841	-7.67988
639.042	27.13559
639.242	80.38277
639.443	0.51199
639.644	78.3348
639.845	-42.49535
640.045	33.27949
640.246	57.85512
640.447	-3.58395
640.648	33.27949
640.848	41.47137
641.049	-22.01566
641.25	-60.92707
641.45	14.84777
641.651	-56.83113
641.851	27.13559
642.052	20.99168
642.253	-56.83113
642.453	57.85512
642.654	-56.83113
642.854	43.51934
643.055	78.3348
643.255	-11.77582
643.456	-52.7352
643.656	-60.92707
643.857	27.13559
644.057	14.84777
644.258	-32.25551
644.458	-1.53598
644.659	-22.01566
644.859	-28.15957
645.06	4.60793
645.26	-3.58395
645.46	-40.44738
645.661	-15.87176
645.861	29.18355
646.062	-3.58395
646.262	4.60793
646.462	35.32746
646.663	-34.30348
646.863	6.6559
647.063	-1.53598
647.263	-91.6466
647.464	-3.58395
647.664	-19.9677
647.864	-5.63191
648.064	14.84777
648.265	-42.49535
648.465	59.90309
648.665	18.94371
648.865	16.89574
649.065	23.03965
649.266	-42.49535
649.466	51.71121
649.666	-3.58395
649.866	-50.68723
650.066	-83.45473
650.266	-42.49535
650.466	-17.91973
650.666	-67.07098
650.866	-13.82379
651.067	-28.15957
651.267	-19.9677
651.467	10.75184
651.667	2.55996
651.867	2.55996
652.067	-56.83113
652.267	-34.30348
652.466	-44.54332
652.666	-15.87176
652.866	35.32746
653.066	-60.92707
653.266	45.5673
653.466	-1.53598
653.666	-48.63926
653.866	-5.63191
654.066	-11.77582
654.266	25.08762
654.465	-1.53598
654.665	59.90309
654.865	-50.68723
655.065	16.89574
655.265	-50.68723
655.464	-40.44738
655.664	-48.63926
655.864	4.60793
656.064	31.23152
656.263	-28.15957
656.463	55.80715
656.663	37.37543
656.862	-17.91973
657.062	-52.7352
657.262	-30.20754
657.461	-11.77582
657.661	29.18355
657.861	-73.21488
658.06	-30.20754
658.26	-24.06363
658.459	6.6559
658.659	-9.72785
658.858	14.84777
659.058	-42.49535
659.258	4.60793
659.457	2.55996
659.657	-3.58395
659.856	-1.53598
660.056	8.70387
660.255	-56.83113
660.454	29.18355
660.654	-54.78316
660.853	-46.59129
661.053	10.75184
661.252	-17.91973
661.452	-89.59863
661.651	4.60793
661.85	33.27949
662.05	-81.40676
662.249	-40.44738
662.448	12.7998
662.648	-60.92707
662.847	-40.44738
663.046	20.99168
663.245	16.89574
663.445	-7.67988
663.644	-5.63191
663.843	18.94371
664.042	-44.54332
664.242	8.70387
664.441	27.13559
664.64	16.89574
664.839	-3.58395
665.038	-28.15957
665.237	-17.91973
665.437	20.99168
665.636	-34.30348
665.835	-7.67988
666.034	-48.63926
666.233	-19.9677
666.432	-38.39941
666.631	0.51199
666.83	2.55996
667.029	-34.30348
667.228	-77.31082
667.427	-77.31082
667.626	2.55996
667.825	57.85512
668.024	-22.01566
668.223	-32.25551
668.422	20.99168
668.621	-71.16691
668.82	-32.25551
669.019	-3.58395
669.218	41.47137
669.417	-30.20754
669.615	16.89574
669.814	-3.58395
670.013	-9.72785
670.212	-34.30348
670.411	-122.36613
670.609	4.60793
670.808	-11.77582
671.007	-46.59129
671.206	-17.91973
671.405	-9.72785
671.603	0.51199
671.802	8.70387
672.001	-11.77582
672.199	10.75184
672.398	-7.67988
672.597	-19.9677
672.795	-3.58395
672.994	-67.07098
673.193	0.51199
673.391	-1.53598
673.59	-56.83113
673.789	-71.16691
673.987	68.09496
674.186	-7.67988
674.384	-7.67988
674.583	4.60793
674.781	-95.74254
674.98	-24.06363
675.178	-22.01566
675.377	-38.39941
675.575	-56.83113
675.774	-17.91973
675.972	27.13559
676.171	-24.06363
676.369	-38.39941
676.567	6.6559
676.766	-26.1116
676.964	-75.26285
677.163	33.27949
677.361	10.75184
677.559	-30.20754
677.758	-34.30348
677.956	-32.25551
678.154	-15.87176
678.353	-11.77582
678.551	-34.30348
678.749	12.7998
678.947	-24.06363
679.146	-5.63191
679.344	-32.25551
679.542	-5.63191
679.74	-11.77582
679.938	8.70387
680.137	-73.21488
680.335	-1.53598
680.533	-34.30348
680.731	-36.35145
680.929	-11.77582
681.127	-24.06363
681.325	-11.77582
681.523	-13.82379
681.721	-5.63191
681.92	0.51199
682.118	2.55996
682.316	10.75184
682.514	-11.77582
682.712	-73.21488
682.91	23.03965
683.108	43.51934
683.306	25.08762
683.504	-1.53598
683.701	6.6559
683.899	12.7998
684.097	-48.63926
684.295	-13.82379
684.493	-1.53598
684.691	-73.21488
684.889	-62.97504
685.087	-99.83848
685.284	-48.63926
685.482	-40.44738
685.68	51.71121
685.878	2.55996
686.076	-50.68723
686.273	-32.25551
686.471	-52.7352
686.669	0.51199
686.867	-48.63926
687.064	-54.78316
687.262	-24.06363
687.46	70.14293
687.657	8.70387
687.855	25.08762
688.053	-42.49535
688.25	-58.8791
688.448	33.27949
688.646	10.75184
688.843	-22.01566
689.041	-42.49535
689.238	-17.91973
689.436	-9.72785
689.633	-15.87176
689.831	0.51199
690.029	6.6559
690.226	33.27949
690.424	-24.06363
690.621	33.27949
690.818	-17.91973
691.016	-7.67988
691.213	20.99168
691.411	-22.01566
691.608	-48.63926
691.806	-15.87176
692.003	23.03965
692.2	-71.16691
692.398	4.60793
692.595	14.84777
692.792	78.3348
692.99	-24.06363
693.187	-40.44738
693.384	-38.39941
693.582	-93.69457
693.779	33.27949
693.976	-1.53598
694.173	4.60793
694.371	-69.11895
694.568	0.51199
694.765	-26.1116
694.962	31.23152
695.159	-65.02301
695.356	59.90309
695.554	-44.54332
695.751	23.03965
695.948	-89.59863
696.145	-17.91973
696.342	-5.63191
696.539	-69.11895
696.736	-24.06363
696.933	-19.9677
697.13	-46.59129
697.327	2.55996
697.524	-9.72785
697.721	-32.25551
697.918	-1.53598
698.115	-13.82379
698.312	27.13559
698.509	-11.77582
698.706	-40.44738
698.903	-13.82379
699.1	14.84777
699.297	-11.77582
699.494	-89.59863
699.691	-22.01566
699.887	-48.63926
700.084	-93.69457
700.281	-56.83113
700.478	-24.06363
700.675	-24.06363
700.871	-24.06363
701.068	-38.39941
701.265	-48.63926
701.462	35.32746
701.658	-19.9677
701.855	-28.15957
702.052	-34.30348
702.249	-73.21488
702.445	-30.20754
702.642	2.55996
702.839	-17.91973
703.035	-83.45473
703.232	-22.01566
703.428	-52.7352
703.625	-1.53598
703.822	8.70387
704.018	-17.91973
704.215	-34.30348
704.411	-44.54332
704.608	-75.26285
704.804	-26.1116
705.001	-30.20754
705.197	39.4234
705.394	-11.77582
705.59	55.80715
705.787	-75.26285
705.983	14.84777
706.18	-17.91973
706.376	-11.77582
706.572	-17.91973
706.769	-52.7352
706.965	0.51199
707.161	10.75184
707.358	-28.15957
707.554	-28.15957
707.75	-26.1116
707.947	8.70387
708.143	-83.45473
708.339	43.51934
708.536	-38.39941
708.732	12.7998
708.928	-22.01566
709.124	16.89574
709.32	25.08762
709.517	4.60793
709.713	-19.9677
709.909	-7.67988
710.105	-22.01566
710.301	4.60793
710.497	-54.78316
710.693	31.23152
710.89	-32.25551
711.086	49.66324
711.282	-5.63191
711.478	-13.82379
711.674	8.70387
711.87	-26.1116
712.066	-52.7352
712.262	-7.67988
712.458	-3.58395
712.654	-71.16691
712.85	-7.67988
713.046	-1.53598
713.242	-83.45473
713.438	-11.77582
713.633	-11.77582
713.829	-13.82379
714.025	39.4234
714.221	12.7998
714.417	-3.58395
714.613	41.47137
714.809	-56.83113
715.004	-65.02301
715.2	6.6559
715.396	-24.06363
715.592	-30.20754
715.788	-3.58395
715.983	18.94371
716.179	0.51199
716.375	-44.54332
716.57	-13.82379
716.766	12.7998
716.962	-48.63926
717.157	0.51199
717.353	-3.58395
717.549	-40.44738
717.744	35.32746
717.94	-7.67988
718.136	0.51199
718.331	-9.72785
718.527	2.55996
718.722	16.89574
718.918	-44.54332
719.113	-99.83848
719.309	-3.58395
719.504	23.03965
719.7	-24.06363
719.895	-22.01566
720.091	-52.7352
720.286	-62.97504
720.482	-52.7352
720.677	-108.03035
720.872	-81.40676
721.068	12.7998
721.263	-71.16691
721.458	-19.9677
721.654	-26.1116
721.849	4.60793
722.044	-56.83113
722.24	33.27949
722.435	-65.02301
722.63	-54.78316
722.826	6.6559
723.021	-28.15957
723.216	-19.9677
723.411	-30.20754
723.606	14.84777
723.802	51.71121
723.997	-7.67988
724.192	6.6559
724.387	-11.77582
724.582	-52.7352
724.777	-3.58395
724.973	35.32746
725.168	-3.58395
725.363	-3.58395
725.558	10.75184
725.753	-56.83113
725.948	51.71121
726.143	12.7998
726.338	-19.9677
726.533	-11.77582
726.728	-28.15957
726.923	-54.78316
727.118	-3.58395
727.313	-44.54332
727.508	8.70387
727.703	-65.02301
727.897	31.23152
728.092	16.89574
728.287	-56.83113
728.482	-34.30348
728.677	-26.1116
728.872	6.6559
729.067	-3.58395
729.261	-3.58395
729.456	-67.07098
729.651	31.23152
729.846	-28.15957
730.04	-26.1116
730.235	55.80715
730.43	-30.20754
730.625	-46.59129
730.819	-13.82379
731.014	23.03965
731.209	-48.63926
731.403	-30.20754
731.598	-22.01566
731.793	-28.15957
731.987	-50.68723
732.182	6.6559
732.376	-11.77582
732.571	20.99168
732.765	8.70387
732.96	-40.44738
733.155	-3.58395
733.349	6.6559
733.544	-58.8791
733.738	4.60793
733.932	-85.5027
734.127	80.38277
734.321	12.7998
734.516	49.66324
734.71	14.84777
734.905	-26.1116
735.099	-36.35145
735.293	4.60793
735.488	-85.5027
735.682	-15.87176
735.876	-114.17426
736.071	-7.67988
736.265	4.60793
736.459	31.23152
736.654	-38.39941
736.848	-60.92707
737.042	-34.30348
737.236	-46.59129
737.431	-11.77582
737.625	-24.06363
737.819	6.6559
738.013	-9.72785
738.207	0.51199
738.401	-44.54332
738.596	-11.77582
738.79	-7.67988
738.984	14.84777
739.178	-48.63926
739.372	-93.69457
739.566	-73.21488
739.76	-32.25551
739.954	47.61527
740.148	-36.35145
740.342	-67.07098
740.536	-75.26285
740.73	-1.53598
740.924	-26.1116
741.118	23.03965
741.312	16.89574
741.506	-69.11895
741.7	-1.53598
741.894	-32.25551
742.087	-58.8791
742.281	-48.63926
742.475	-83.45473
742.669	8.70387
742.863	-46.59129
743.057	-38.39941
743.25	51.71121
743.444	-34.30348
743.638	-3.58395
743.832	27.13559
744.025	-67.07098
744.219	-73.21488
744.413	49.66324
744.607	0.51199
744.8	-81.40676
744.994	-87.55066
745.188	0.51199
745.381	25.08762
745.575	-48.63926
745.768	37.37543
745.962	-13.82379
746.156	25.08762
746.349	-52.7352
746.543	-97.79051
746.736	-54.78316
746.93	-52.7352
747.123	37.37543
747.317	25.08762
747.51	8.70387
747.704	63.99902
747.897	-71.16691
748.091	18.94371
748.284	-19.9677
748.478	-3.58395
748.671	-52.7352
748.864	-7.67988
749.058	-22.01566
749.251	-46.59129
749.444	-15.87176
749.638	-56.83113
749.831	16.89574
750.024	39.4234
750.218	-9.72785
750.411	-22.01566
750.604	-11.77582
750.797	-60.92707
750.991	-120.31816
751.184	-26.1116
751.377	-28.15957
751.57	25.08762
751.763	-89.59863
751.956	-19.9677
752.15	25.08762
752.343	-17.91973
752.536	2.55996
752.729	-67.07098
752.922	-5.63191
753.115	-24.06363
753.308	-19.9677
753.501	37.37543
753.694	-120.31816
753.887	-52.7352
754.08	-19.9677
754.273	-52.7352
754.466	18.94371
754.659	-42.49535
754.852	10.75184
755.045	-22.01566
755.238	-9.72785
755.431	-38.39941
755.624	-42.49535
755.817	-32.25551
756.009	27.13559
756.202	-17.91973
756.395	-22.01566
756.588	-36.35145
756.781	-9.72785
756.973	29.18355
757.166	-40.44738
757.359	-1.53598
757.552	8.70387
757.744	-124.4141
757.937	-95.74254
758.13	-48.63926
758.322	-7.67988
758.515	-69.11895
758.708	-69.11895
758.9	-9.72785
759.093	-65.02301
759.286	-3.58395
759.478	-69.11895
759.671	20.99168
759.863	-105.98238
760.056	-11.77582
760.248	-1.53598
760.441	-9.72785
760.633	-36.35145
760.826	10.75184
761.018	72.1909
761.211	2.55996
761.403	-44.54332
761.596	-65.02301
761.788	-67.07098
761.981	-22.01566
762.173	-32.25551
762.365	-24.06363
762.558	-36.35145
762.75	29.18355
762.942	-54.78316
763.135	2.55996
763.327	10.75184
763.519	-15.87176
763.712	-54.78316
763.904	14.84777
764.096	-67.07098
764.288	6.6559
764.481	-46.59129
764.673	-50.68723
764.865	2.55996
765.057	8.70387
765.249	-110.07832
765.441	-89.59863
765.634	8.70387
765.826	-3.58395
766.018	-3.58395
766.21	-60.92707
766.402	-13.82379
766.594	-62.97504
766.786	-11.77582
766.978	-58.8791
767.17	10.75184
767.362	-11.77582
767.554	-7.67988
767.746	35.32746
767.938	-34.30348
768.13	16.89574
768.322	2.55996
768.514	-87.55066
768.706	-69.11895
768.898	-11.77582
769.089	-40.44738
769.281	-44.54332
769.473	-48.63926
769.665	4.60793
769.857	29.18355
770.049	-60.92707
770.24	10.75184
770.432	-17.91973
770.624	-42.49535
770.816	-83.45473
771.007	-24.06363
771.199	-30.20754
771.391	-65.02301
771.582	-65.02301
771.774	-48.63926
771.966	-38.39941
772.157	18.94371
772.349	-91.6466
772.541	-65.02301
772.732	0.51199
772.924	51.71121
773.115	-1.53598
773.307	-30.20754
773.498	63.99902
773.69	-54.78316
773.881	-48.63926
774.073	-15.87176
774.264	-30.20754
774.456	18.94371
774.647	25.08762
774.839	-32.25551
775.03	-36.35145
775.221	31.23152
775.413	-1.53598
775.604	-1.53598
775.796	10.75184
775.987	-87.55066
776.178	31.23152
776.37	-48.63926
776.561	-11.77582
776.752	57.85512
776.943	27.13559
777.135	-15.87176
777.326	29.18355
777.517	29.18355
777.708	-44.54332
777.899	-50.68723
778.091	-3.58395
778.282	-95.74254
778.473	-73.21488
778.664	-3.58395
778.855	-3.58395
779.046	-52.7352
779.237	70.14293
779.428	4.60793
779.62	25.08762
779.811	-5.63191
780.002	-28.15957
780.193	-40.44738
780.384	-91.6466
780.575	-38.39941
780.766	27.13559
780.957	-38.39941
781.148	39.4234
781.338	8.70387
781.529	-42.49535
781.72	-56.83113
781.911	-52.7352
782.102	-13.82379
782.293	-22.01566
782.484	-36.35145
782.674	-7.67988
782.865	-46.59129
783.056	-36.35145
783.247	-65.02301
783.438	59.90309
783.628	-60.92707
783.819	27.13559
784.01	8.70387
784.201	61.95105
784.391	31.23152
784.582	61.95105
784.773	-62.97504
784.963	-67.07098
785.154	-28.15957
785.344	-15.87176
785.535	20.99168
785.726	-3.58395
785.916	14.84777
786.107	-28.15957
786.297	16.89574
786.488	27.13559
786.678	-11.77582
786.869	10.75184
787.059	-7.67988
787.25	-5.63191
787.44	-32.25551
787.631	-7.67988
787.821	-75.26285
788.012	-36.35145
788.202	-48.63926
788.392	-11.77582
788.583	-52.7352
788.773	-38.39941
788.963	-52.7352
789.154	6.6559
789.344	-30.20754
789.534	-42.49535
789.724	8.70387
789.915	-40.44738
790.105	-22.01566
790.295	-40.44738
790.485	-89.59863
790.676	-3.58395
790.866	20.99168
791.056	-11.77582
791.246	51.71121
791.436	-54.78316
791.626	-69.11895
791.816	-3.58395
792.007	-28.15957
792.197	-19.9677
792.387	-69.11895
792.577	39.4234
792.767	0.51199
792.957	-32.25551
793.147	0.51199
793.337	-42.49535
793.527	-28.15957
793.717	-32.25551
793.907	-44.54332
794.097	2.55996
794.287	-79.35879
794.476	4.60793
794.666	16.89574
794.856	-22.01566
795.046	-19.9677
795.236	-22.01566
795.426	-17.91973
795.615	-46.59129
795.805	-42.49535
795.995	-34.30348
796.185	-1.53598
796.375	-48.63926
796.564	-56.83113
796.754	-50.68723
796.944	-60.92707
797.133	12.7998
797.323	-28.15957
797.513	-13.82379
797.702	-30.20754
797.892	-40.44738
798.082	18.94371
798.271	61.95105
798.461	2.55996
798.65	10.75184
798.84	70.14293
799.029	-15.87176
799.219	-13.82379
799.408	-65.02301
799.598	-24.06363
799.787	51.71121
799.977	-28.15957
800.166	25.08762
800.356	-75.26285
800.545	4.60793
800.735	-19.9677
800.924	-36.35145
801.113	-7.67988
801.303	0.51199
801.492	-28.15957
801.681	-48.63926
801.871	-34.30348
802.06	43.51934
802.249	-77.31082
802.438	-46.59129
802.628	-15.87176
802.817	29.18355
803.006	-79.35879
803.195	14.84777
803.385	-15.87176
803.574	-11.77582
803.763	-15.87176
803.952	-44.54332
804.141	6.6559
804.33	14.84777
804.519	-38.39941
804.708	-56.83113
804.897	-22.01566
805.087	-52.7352
805.276	-30.20754
805.465	-46.59129
805.654	-42.49535
805.843	-89.59863
806.032	-46.59129
806.22	20.99168
806.409	-36.35145
806.598	-28.15957
806.787	-11.77582
806.976	-46.59129
807.165	-19.9677
807.354	23.03965
807.543	-67.07098
807.732	-26.1116
807.92	-24.06363
808.109	-7.67988
808.298	-67.07098
808.487	8.70387
808.676	-62.97504
808.864	-3.58395
809.053	-99.83848
809.242	6.6559
809.43	-30.20754
809.619	-7.67988
809.808	-67.07098
809.996	4.60793
810.185	-54.78316
810.374	-13.82379
810.562	14.84777
810.751	8.70387
810.939	-1.53598
811.128	-91.6466
811.317	-34.30348
811.505	-11.77582
811.694	-44.54332
811.882	-28.15957
812.071	-65.02301
812.259	61.95105
812.448	-30.20754
812.636	20.99168
812.824	-48.63926
813.013	-24.06363
813.201	-15.87176
813.39	-30.20754
813.578	-19.9677
813.766	-46.59129
813.955	-17.91973
814.143	-71.16691
814.331	6.6559
814.519	6.6559
814.708	33.27949
814.896	45.5673
815.084	-87.55066
815.272	-9.72785
815.461	0.51199
815.649	23.03965
815.837	-26.1116
816.025	-1.53598
816.213	-44.54332
816.401	27.13559
816.59	0.51199
816.778	-77.31082
816.966	-15.87176
817.154	-7.67988
817.342	-60.92707
817.53	16.89574
817.718	70.14293
817.906	-9.72785
818.094	47.61527
818.282	-36.35145
818.47	14.84777
818.658	-15.87176
818.846	-67.07098
819.034	-44.54332
819.222	-48.63926
819.409	0.51199
819.597	29.18355
819.785	49.66324
819.973	57.85512
820.161	-54.78316
820.349	20.99168
820.536	-34.30348
820.724	31.23152
820.912	-38.39941
821.1	-50.68723
821.287	72.1909
821.475	-3.58395
821.663	-15.87176
821.85	-46.59129
822.038	-1.53598
822.226	-95.74254
822.413	-30.20754
822.601	-36.35145
822.789	-19.9677
822.976	16.89574
823.164	-15.87176
823.351	8.70387
823.539	-11.77582
823.726	-124.4141
823.914	-34.30348
824.101	-36.35145
824.289	2.55996
824.476	-67.07098
824.664	-81.40676
824.851	-22.01566
825.039	33.27949
825.226	-75.26285
825.413	6.6559
825.601	37.37543
825.788	16.89574
825.976	-9.72785
826.163	-28.15957
826.35	-36.35145
826.537	-52.7352
826.725	-56.83113
826.912	43.51934
827.099	31.23152
827.286	-50.68723
827.474	-38.39941
827.661	-46.59129
827.848	2.55996
828.035	-116.22223
828.222	-15.87176
828.409	-19.9677
828.597	33.27949
828.784	-69.11895
828.971	-73.21488
829.158	-46.59129
829.345	-48.63926
829.532	16.89574
829.719	-46.59129
829.906	-26.1116
830.093	-15.87176
830.28	-110.07832
830.467	-42.49535
830.654	-50.68723
830.841	-83.45473
831.028	23.03965
831.215	-65.02301
831.402	-32.25551
831.588	47.61527
831.775	8.70387
831.962	-52.7352
832.149	-17.91973
832.336	-28.15957
832.522	-9.72785
832.709	-69.11895
832.896	-52.7352
833.083	-95.74254
833.269	-91.6466
833.456	-48.63926
833.643	-11.77582
833.83	-87.55066
834.016	41.47137
834.203	4.60793
834.39	-75.26285
834.576	14.84777
834.763	-103.93441
834.949	-38.39941
835.136	-44.54332
835.322	-28.15957
835.509	41.47137
835.695	-1.53598
835.882	-40.44738
836.068	-67.07098
836.255	-1.53598
836.441	6.6559
836.628	27.13559
836.814	-36.35145
837.001	25.08762
837.187	4.60793
837.373	23.03965
837.56	-24.06363
837.746	-38.39941
837.933	-32.25551
838.119	2.55996
838.305	-122.36613
838.491	-9.72785
838.678	-42.49535
838.864	-54.78316
839.05	18.94371
839.236	-1.53598
839.423	-56.83113
839.609	-73.21488
839.795	-17.91973
839.981	-40.44738
840.167	4.60793
840.353	-87.55066
840.54	-40.44738
840.726	-30.20754
840.912	-54.78316
841.098	-36.35145
841.284	-36.35145
841.47	-40.44738
841.656	-17.91973
841.842	-15.87176
842.028	-77.31082
842.214	4.60793
842.4	-5.63191
842.586	-52.7352
842.772	-19.9677
842.958	41.47137
843.143	-11.77582
843.329	-48.63926
843.515	-28.15957
843.701	-9.72785
843.887	-24.06363
844.073	-87.55066
844.258	8.70387
844.444	25.08762
844.63	-56.83113
844.816	-7.67988
845.001	8.70387
845.187	-38.39941
845.373	-38.39941
845.559	-38.39941
845.744	10.75184
845.93	-11.77582
846.115	-163.32551
846.301	61.95105
846.487	10.75184
846.672	-114.17426
846.858	-34.30348
847.043	53.75918
847.229	-71.16691
847.414	12.7998
847.6	-9.72785
847.785	8.70387
847.971	-30.20754
848.156	-22.01566
848.342	2.55996
848.527	-22.01566
848.713	-13.82379
848.898	-15.87176
849.083	20.99168
849.269	33.27949
849.454	25.08762
849.639	23.03965
849.825	82.43074
850.01	-81.40676
850.195	-38.39941
850.381	-5.63191
850.566	37.37543
850.751	-50.68723
850.936	14.84777
851.122	20.99168
851.307	23.03965
851.492	-40.44738
851.677	6.6559
851.862	0.51199
852.047	-62.97504
852.232	-26.1116
852.417	20.99168
852.603	-1.53598
852.788	14.84777
852.973	-44.54332
853.158	-24.06363
853.343	16.89574
853.528	-11.77582
853.713	-67.07098
853.898	-28.15957
854.083	-48.63926
854.267	39.4234
854.452	-62.97504
854.637	-22.01566
854.822	-1.53598
855.007	-32.25551
855.192	-54.78316
855.377	-5.63191
855.562	-19.9677
855.746	-62.97504
855.931	25.08762
856.116	-48.63926
856.301	57.85512
856.485	-9.72785
856.67	6.6559
856.855	-7.67988
857.039	-19.9677
857.224	-13.82379
857.409	-97.79051
857.593	-54.78316
857.778	51.71121
857.963	-60.92707
858.147	-69.11895
858.332	12.7998
858.516	0.51199
858.701	-46.59129
858.885	0.51199
859.07	10.75184
859.254	4.60793
859.439	2.55996
859.623	33.27949
859.808	-34.30348
859.992	-11.77582
860.177	-48.63926
860.361	-19.9677
860.545	-56.83113
860.73	86.52668
860.914	-13.82379
861.098	-114.17426
861.283	-40.44738
861.467	-36.35145
861.651	-44.54332
861.836	-26.1116
862.02	-50.68723
862.204	-1.53598
862.388	-36.35145
862.572	-26.1116
862.757	-15.87176
862.941	-28.15957
863.125	2.55996
863.309	-48.63926
863.493	10.75184
863.677	16.89574
863.861	-46.59129
864.045	-24.06363
864.23	4.60793
864.414	0.51199
864.598	47.61527
864.782	-19.9677
864.966	-11.77582
865.15	47.61527
865.334	14.84777
865.517	23.03965
865.701	-42.49535
865.885	16.89574
866.069	37.37543
866.253	6.6559
866.437	-7.67988
866.621	-24.06363
866.805	0.51199
866.988	-40.44738
867.172	-48.63926
867.356	29.18355
867.54	-34.30348
867.723	82.43074
867.907	-67.07098
868.091	-79.35879
868.275	-19.9677
868.458	-56.83113
868.642	-69.11895
868.826	-48.63926
869.009	6.6559
869.193	-73.21488
869.376	18.94371
869.56	0.51199
869.744	16.89574
869.927	-77.31082
870.111	-3.58395
870.294	-15.87176
870.478	-36.35145
870.661	-3.58395
870.845	-22.01566
871.028	-13.82379
871.211	25.08762
871.395	-75.26285
871.578	-30.20754
871.762	-42.49535
871.945	-1.53598
872.128	12.7998
872.312	-85.5027
872.495	-46.59129
872.678	6.6559
872.862	-28.15957
873.045	-52.7352
873.228	16.89574
873.411	27.13559
873.595	-7.67988
873.778	41.47137
873.961	59.90309
874.144	20.99168
874.327	-71.16691
874.51	-48.63926
874.694	-5.63191
874.877	8.70387
875.06	-67.07098
875.243	16.89574
875.426	-32.25551
875.609	-22.01566
875.792	-34.30348
875.975	-24.06363
876.158	-7.67988
876.341	53.75918
876.524	29.18355
876.707	-50.68723
876.89	23.03965
877.073	-22.01566
877.255	-30.20754
877.438	-5.63191
877.621	-71.16691
877.804	6.6559
877.987	-7.67988
878.17	23.03965
878.352	-9.72785
878.535	74.23887
878.718	-3.58395
878.901	-50.68723
879.083	-34.30348
879.266	14.84777
879.449	39.4234
879.631	-15.87176
879.814	-26.1116
879.997	33.27949
880.179	-19.9677
880.362	0.51199
880.545	-38.39941
880.727	-13.82379
880.91	-108.03035
881.092	-99.83848
881.275	-5.63191
881.457	-24.06363
881.64	8.70387
881.822	-112.12629
882.005	-5.63191
882.187	-48.63926
882.37	8.70387
882.552	-44.54332
882.734	-13.82379
882.917	-85.5027
883.099	-28.15957
883.281	-13.82379
883.464	-83.45473
883.646	-32.25551
883.828	10.75184
884.011	-97.79051
884.193	-69.11895
884.375	-71.16691
884.557	-9.72785
884.74	-17.91973
884.922	-28.15957
885.104	-44.54332
885.286	-9.72785
885.468	-5.63191
885.65	6.6559
885.832	8.70387
886.015	-15.87176
886.197	-65.02301
886.379	-3.58395
886.561	-122.36613
886.743	-48.63926
886.925	-36.35145
887.107	-5.63191
887.289	-30.20754
887.471	8.70387
887.653	10.75184
887.835	-62.97504
888.016	-56.83113
888.198	-19.9677
888.38	18.94371
888.562	-52.7352
888.744	-77.31082
888.926	-26.1116
889.108	41.47137
889.289	-69.11895
889.471	-67.07098
889.653	-24.06363
889.835	-24.06363
890.016	23.03965
890.198	-32.25551
890.38	-34.30348
890.561	-17.91973
890.743	29.18355
890.925	14.84777
891.106	-19.9677
891.288	-11.77582
891.469	-58.8791
891.651	49.66324
891.833	47.61527
892.014	10.75184
892.196	133.62996
892.377	-42.49535
892.559	59.90309
892.74	-34.30348
892.922	14.84777
893.103	12.7998
893.284	-7.67988
893.466	-83.45473
893.647	-24.06363
893.829	-77.31082
894.01	-50.68723
894.191	-52.7352
894.373	-22.01566
894.554	-24.06363
894.735	-89.59863
894.916	-32.25551
895.098	2.55996
895.279	-34.30348
895.46	37.37543
895.641	-9.72785
895.823	41.47137
896.004	-79.35879
896.185	-28.15957
896.366	-58.8791
896.547	23.03965
896.728	-36.35145
896.909	-7.67988
897.09	-13.82379
897.271	-30.20754
897.452	-5.63191
897.633	-19.9677
897.814	-69.11895
897.995	-13.82379
898.176	4.60793
898.357	-54.78316
898.538	4.60793
898.719	-48.63926
898.9	4.60793
899.081	10.75184
899.262	-26.1116
899.443	-11.77582
899.623	-101.88645
899.804	-89.59863
899.985	-24.06363
900.166	33.27949
900.347	-91.6466
900.527	-22.01566
900.708	-69.11895
900.889	-52.7352
901.07	-40.44738
901.25	-46.59129
901.431	45.5673
901.611	-17.91973
901.792	-62.97504
901.973	-30.20754
902.153	72.1909
902.334	-7.67988
902.514	14.84777
902.695	8.70387
902.876	31.23152
903.056	-11.77582
903.237	-17.91973
903.417	-48.63926
903.597	-5.63191
903.778	-26.1116
903.958	-65.02301
904.139	-36.35145
904.319	-75.26285
904.499	-9.72785
904.68	-112.12629
904.86	-54.78316
905.04	29.18355
905.221	-17.91973
905.401	-9.72785
905.581	-46.59129
905.762	-30.20754
905.942	43.51934
906.122	-11.77582
906.302	8.70387
906.482	0.51199
906.663	68.09496
906.843	-71.16691
907.023	-26.1116
907.203	16.89574
907.383	-71.16691
907.563	18.94371
907.743	20.99168
907.923	16.89574
908.103	2.55996
908.283	6.6559
908.463	6.6559
908.643	-40.44738
908.823	-60.92707
909.003	-56.83113
909.183	-26.1116
909.363	-5.63191
909.543	-7.67988
909.723	-26.1116
909.903	-32.25551
910.082	-19.9677
910.262	-28.15957
910.442	-26.1116
910.622	37.37543
910.802	-3.58395
910.981	-1.53598
911.161	-56.83113
911.341	-5.63191
911.521	-19.9677
911.7	20.99168
911.88	-26.1116
912.06	-73.21488
912.239	-54.78316
912.419	8.70387
912.598	-9.72785
912.778	-9.72785
912.958	-36.35145
913.137	-71.16691
913.317	-13.82379
913.496	-75.26285
913.676	0.51199
913.855	-30.20754
914.035	35.32746
914.214	-52.7352
914.393	-24.06363
914.573	-32.25551
914.752	-7.67988
914.932	-34.30348
915.111	-50.68723
915.29	-7.67988
915.47	8.70387
915.649	-7.67988
915.828	-30.20754
916.008	27.13559
916.187	-5.63191
916.366	31.23152
916.545	2.55996
916.724	18.94371
916.904	-91.6466
917.083	-28.15957
917.262	-34.30348
917.441	-24.06363
917.62	-46.59129
917.799	-69.11895
917.978	-34.30348
918.158	-44.54332
918.337	-101.88645
918.516	53.75918
918.695	10.75184
918.874	14.84777
919.053	-36.35145
919.232	-56.83113
919.41	-56.83113
919.589	18.94371
919.768	-5.63191
919.947	-19.9677
920.126	47.61527
920.305	14.84777
920.484	59.90309
920.663	0.51199
920.841	0.51199
921.02	12.7998
921.199	18.94371
921.378	10.75184
921.556	-26.1116
921.735	18.94371
921.914	0.51199
922.093	-5.63191
922.271	-1.53598
922.45	14.84777
922.629	-17.91973
922.807	-17.91973
922.986	-58.8791
923.164	12.7998
923.343	-67.07098
923.521	-38.39941
923.7	-48.63926
923.878	-17.91973
924.057	-32.25551
924.235	-60.92707
924.414	-77.31082
924.592	2.55996
924.771	-22.01566
924.949	-48.63926
925.128	-56.83113
925.306	45.5673
925.484	-77.31082
925.663	25.08762
925.841	29.18355
926.019	0.51199
926.198	-52.7352
926.376	-7.67988
926.554	-67.07098
926.732	-65.02301
926.91	-52.7352
927.089	25.08762
927.267	-11.77582
927.445	-38.39941
927.623	-48.63926
927.801	16.89574
927.979	31.23152
928.158	-19.9677
928.336	-81.40676
928.514	23.03965
928.692	-11.77582
928.87	-71.16691
929.048	-50.68723
929.226	4.60793
929.404	-50.68723
929.582	4.60793
929.76	-11.77582
929.937	-1.53598
930.115	20.99168
930.293	-62.97504
930.471	-15.87176
930.649	4.60793
930.827	-77.31082
931.005	-13.82379
931.182	-24.06363
931.36	20.99168
931.538	4.60793
931.716	-22.01566
931.893	16.89574
932.071	-91.6466
932.249	-89.59863
932.426	-22.01566
932.604	-44.54332
932.782	-9.72785
932.959	41.47137
933.137	80.38277
933.315	-13.82379
933.492	4.60793
933.67	29.18355
933.847	-50.68723
934.025	0.51199
934.202	2.55996
934.38	0.51199
934.557	-34.30348
934.735	-65.02301
934.912	-40.44738
935.089	-67.07098
935.267	-1.53598
935.444	4.60793
935.622	-44.54332
935.799	-40.44738
935.976	-56.83113
936.154	20.99168
936.331	-26.1116
936.508	-81.40676
936.685	-1.53598
936.863	-54.78316
937.04	-17.91973
937.217	45.5673
937.394	-48.63926
937.571	-9.72785
937.748	-11.77582
937.926	0.51199
938.103	-19.9677
938.28	8.70387
938.457	-56.83113
938.634	-38.39941
938.811	-11.77582
938.988	-1.53598
939.165	-32.25551
939.342	20.99168
939.519	-48.63926
939.696	-77.31082
939.873	-11.77582
940.05	-7.67988
940.227	76.28684
940.404	-28.15957
940.58	-7.67988
940.757	-32.25551
940.934	-9.72785
941.111	-44.54332
941.288	-38.39941
941.464	-42.49535
941.641	-24.06363
941.818	20.99168
941.995	-42.49535
942.171	-30.20754
942.348	-22.01566
942.525	51.71121
942.701	-19.9677
942.878	6.6559
943.055	-1.53598
943.231	-62.97504
943.408	6.6559
943.584	-50.68723
943.761	-9.72785
943.937	-42.49535
944.114	-40.44738
944.29	12.7998
944.467	-138.74988
944.643	16.89574
944.82	-1.53598
944.996	-81.40676
945.173	16.89574
945.349	33.27949
945.525	-26.1116
945.702	-28.15957
945.878	-56.83113
946.054	-40.44738
946.231	-54.78316
946.407	70.14293
946.583	8.70387
946.759	-44.54332
946.936	-32.25551
947.112	12.7998
947.288	-38.39941
947.464	0.51199
947.64	-24.06363
947.816	-15.87176
947.992	-38.39941
948.169	47.61527
948.345	-19.9677
948.521	-38.39941
948.697	-32.25551
948.873	-7.67988
949.049	-3.58395
949.225	4.60793
949.401	14.84777
949.577	14.84777
949.753	-13.82379
949.929	-40.44738
950.104	-105.98238
950.28	-34.30348
950.456	-83.45473
950.632	-28.15957
950.808	-69.11895
950.984	-65.02301
951.159	-77.31082
951.335	-40.44738
951.511	-13.82379
951.687	4.60793
951.862	-52.7352
952.038	-40.44738
952.214	0.51199
952.39	-69.11895
952.565	45.5673
952.741	29.18355
952.916	-71.16691
953.092	-50.68723
953.268	-36.35145
953.443	8.70387
953.619	47.61527
953.794	-52.7352
953.97	2.55996
954.145	-7.67988
954.321	-1.53598
954.496	-24.06363
954.672	0.51199
954.847	-46.59129
955.022	-48.63926
955.198	0.51199
955.373	63.99902
955.548	-42.49535
955.724	10.75184
955.899	27.13559
956.074	-69.11895
956.25	35.32746
956.425	-40.44738
956.6	-56.83113
956.775	41.47137
956.951	-19.9677
957.126	8.70387
957.301	-1.53598
957.476	-67.07098
957.651	-46.59129
957.826	-105.98238
958.001	-87.55066
958.176	33.27949
958.352	16.89574
958.527	27.13559
958.702	-13.82379
958.877	-46.59129
959.052	-79.35879
959.227	-5.63191
959.401	25.08762
959.576	-3.58395
959.751	-71.16691
959.926	14.84777
960.101	-62.97504
960.276	6.6559
960.451	-17.91973
960.626	-30.20754
960.8	-38.39941
960.975	31.23152
961.15	47.61527
961.325	-65.02301
961.499	-65.02301
961.674	45.5673
961.849	6.6559
962.023	-36.35145
962.198	-26.1116
962.373	-40.44738
962.547	-73.21488
962.722	37.37543
962.897	-1.53598
963.071	18.94371
963.246	39.4234
963.42	-24.06363
963.595	4.60793
963.769	37.37543
963.944	-65.02301
964.118	25.08762
964.293	-30.20754
964.467	-46.59129
964.641	-46.59129
964.816	2.55996
964.99	-30.20754
965.165	29.18355
965.339	6.6559
965.513	-22.01566
965.687	-48.63926
965.862	25.08762
966.036	25.08762
966.21	12.7998
966.384	-3.58395
966.559	-36.35145
966.733	-81.40676
966.907	76.28684
967.081	-11.77582
967.255	-48.63926
967.429	-71.16691
967.604	-36.35145
967.778	-11.77582
967.952	-32.25551
968.126	-13.82379
968.3	-15.87176
968.474	12.7998
968.648	37.37543
968.822	-34.30348
968.996	20.99168
969.17	-79.35879
969.343	-7.67988
969.517	-7.67988
969.691	8.70387
969.865	2.55996
970.039	47.61527
970.213	0.51199
970.387	39.4234
970.56	-22.01566
970.734	6.6559
970.908	-60.92707
971.082	-56.83113
971.255	-56.83113
971.429	-30.20754
971.603	-30.20754
971.776	37.37543
971.95	-81.40676
972.124	12.7998
972.297	-28.15957
972.471	-40.44738
972.644	-19.9677
972.818	37.37543
972.991	-3.58395
973.165	-26.1116
973.338	-30.20754
973.512	-22.01566
973.685	-17.91973
973.859	0.51199
974.032	-77.31082
974.206	2.55996
974.379	-26.1116
974.552	-28.15957
974.726	23.03965
974.899	-15.87176
975.072	-38.39941
975.246	-58.8791
975.419	-36.35145
975.592	-13.82379
975.765	-48.63926
975.939	-5.63191
976.112	-32.25551
976.285	-11.77582
976.458	-19.9677
976.631	-65.02301
976.804	-26.1116
976.977	-62.97504
977.151	-42.49535
977.324	-52.7352
977.497	-32.25551
977.67	12.7998
977.843	-13.82379
978.016	-9.72785
978.189	-52.7352
978.362	-26.1116
978.535	-1.53598
978.707	-58.8791
978.88	6.6559
979.053	-30.20754
979.226	-1.53598
979.399	-19.9677
979.572	0.51199
979.745	-77.31082
979.917	8.70387
980.09	-36.35145
980.263	-5.63191
980.436	-3.58395
980.608	-24.06363
980.781	-7.67988
980.954	53.75918
981.126	43.51934
981.299	-32.25551
981.472	-103.93441
981.644	-97.79051
981.817	-13.82379
981.989	0.51199
982.162	84.47871
982.335	-32.25551
982.507	-17.91973
982.68	14.84777
982.852	-5.63191
983.024	-77.31082
983.197	-26.1116
983.369	-110.07832
983.542	2.55996
983.714	-105.98238
983.886	2.55996
984.059	-46.59129
984.231	78.3348
984.403	-30.20754
984.576	-44.54332
984.748	-38.39941
984.92	-30.20754
985.093	-17.91973
985.265	-48.63926
985.437	-48.63926
985.609	4.60793
985.781	8.70387
985.953	-26.1116
986.126	-17.91973
986.298	-15.87176
986.47	-54.78316
986.642	25.08762
986.814	-7.67988
986.986	25.08762
987.158	4.60793
987.33	0.51199
987.502	12.7998
987.674	8.70387
987.846	0.51199
988.018	41.47137
988.19	-11.77582
988.361	-48.63926
988.533	70.14293
988.705	-34.30348
988.877	35.32746
989.049	-26.1116
989.221	61.95105
989.392	47.61527
989.564	-13.82379
989.736	12.7998
989.908	4.60793
990.079	-28.15957
990.251	10.75184
990.423	-15.87176
990.594	-36.35145
990.766	10.75184
990.937	4.60793
991.109	-54.78316
991.281	20.99168
991.452	-17.91973
991.624	-9.72785
991.795	6.6559
991.967	-40.44738
992.138	-17.91973
992.31	-30.20754
992.481	-38.39941
992.652	-19.9677
992.824	37.37543
992.995	27.13559
993.167	-44.54332
993.338	80.38277
993.509	-34.30348
993.681	-58.8791
993.852	-7.67988
994.023	-30.20754
994.194	74.23887
994.366	-7.67988
994.537	-22.01566
994.708	-13.82379
994.879	-67.07098
995.05	-42.49535
995.221	-15.87176
995.393	-17.91973
995.564	-36.35145
995.735	-60.92707
995.906	27.13559
996.077	-56.83113
996.248	4.60793
996.419	-40.44738
996.59	23.03965
996.761	-46.59129
996.932	14.84777
997.103	-60.92707
997.274	-46.59129
997.444	41.47137
997.615	-1.53598
997.786	-99.83848
997.957	-17.91973
998.128	33.27949
998.299	-32.25551
998.469	-7.67988
998.64	-62.97504
998.811	-15.87176
998.982	59.90309
999.152	-62.97504
999.323	10.75184
999.494	-15.87176
999.664	-30.20754
999.835	-42.49535
1000.006	-56.83113
1000.176	-32.25551
1000.347	-24.06363
1000.517	-30.20754
1000.688	-65.02301
1000.858	2.55996
1001.029	-71.16691
1001.199	-89.59863
1001.37	12.7998
1001.54	8.70387
1001.711	25.08762
1001.881	-24.06363
1002.051	-11.77582
1002.222	-22.01566
1002.392	-1.53598
1002.562	29.18355
1002.733	-42.49535
1002.903	-65.02301
1003.073	-34.30348
1003.244	-3.58395
1003.414	-65.02301
1003.584	-17.91973
1003.754	14.84777
1003.924	23.03965
1004.094	23.03965
1004.265	18.94371
1004.435	-3.58395
1004.605	-24.06363
1004.775	-13.82379
1004.945	-101.88645
1005.115	-1.53598
1005.285	-77.31082
1005.455	-15.87176
1005.625	-38.39941
1005.795	-22.01566
1005.965	2.55996
1006.135	-77.31082
1006.305	27.13559
1006.475	-26.1116
1006.645	-1.53598
1006.814	-17.91973
1006.984	43.51934
1007.154	-26.1116
1007.324	-36.35145
1007.494	-1.53598
1007.663	4.60793
1007.833	-11.77582
1008.003	-9.72785
1008.172	-3.58395
1008.342	-44.54332
1008.512	-24.06363
1008.681	-62.97504
1008.851	-3.58395
1009.021	14.84777
1009.19	-7.67988
1009.36	12.7998
1009.529	-36.35145
1009.699	-24.06363
1009.868	-5.63191
1010.038	-44.54332
1010.207	80.38277
1010.377	-19.9677
1010.546	-77.31082
1010.716	-34.30348
1010.885	-7.67988
1011.054	-22.01566
1011.224	-34.30348
1011.393	-56.83113
1011.562	-11.77582
1011.732	-60.92707
1011.901	-69.11895
1012.07	-19.9677
1012.24	-36.35145
1012.409	8.70387
1012.578	-26.1116
1012.747	-77.31082
1012.916	-44.54332
1013.085	-75.26285
1013.255	-52.7352
1013.424	8.70387
1013.593	-60.92707
1013.762	-36.35145
1013.931	-5.63191
1014.1	14.84777
1014.269	-19.9677
1014.438	29.18355
1014.607	20.99168
1014.776	-11.77582
1014.945	-26.1116
1015.114	-73.21488
1015.283	-24.06363
1015.451	14.84777
1015.62	10.75184
1015.789	-22.01566
1015.958	-30.20754
1016.127	-40.44738
1016.296	-60.92707
1016.464	-52.7352
1016.633	-40.44738
1016.802	-28.15957
1016.971	-36.35145
1017.139	-58.8791
1017.308	-13.82379
1017.477	-22.01566
1017.645	-28.15957
1017.814	-58.8791
1017.982	-36.35145
1018.151	41.47137
1018.319	-54.78316
1018.488	-22.01566
1018.657	-7.67988
1018.825	8.70387
1018.993	16.89574
1019.162	-56.83113
1019.33	-19.9677
1019.499	31.23152
1019.667	-71.16691
1019.836	-38.39941
1020.004	66.04699
1020.172	-60.92707
1020.341	-9.72785
1020.509	-13.82379
1020.677	16.89574
1020.845	-40.44738
1021.014	-17.91973
1021.182	-1.53598
1021.35	39.4234
1021.518	-110.07832
1021.686	-26.1116
1021.855	41.47137
1022.023	-1.53598
1022.191	-73.21488
1022.359	-54.78316
1022.527	-38.39941
1022.695	-24.06363
1022.863	10.75184
1023.031	-73.21488
1023.199	-19.9677
1023.367	-5.63191
1023.535	-50.68723
1023.703	-56.83113
1023.871	12.7998
1024.039	37.37543
1024.207	-36.35145
1024.375	18.94371
1024.542	-48.63926
1024.71	-7.67988
1024.878	-13.82379
1025.046	66.04699
1025.213	16.89574
1025.381	-1.53598
1025.549	-24.06363
1025.717	-28.15957
1025.884	-81.40676
1026.052	14.84777
1026.22	23.03965
1026.387	29.18355
1026.555	-1.53598
1026.722	55.80715
1026.89	-28.15957
1027.058	-26.1116
1027.225	-75.26285
1027.393	-5.63191
1027.56	55.80715
1027.728	16.89574
1027.895	-9.72785
1028.062	37.37543
1028.23	-22.01566
1028.397	-19.9677
1028.565	-28.15957
1028.732	20.99168
1028.899	-38.39941
1029.067	-7.67988
1029.234	-13.82379
1029.401	10.75184
1029.568	-19.9677
1029.736	-13.82379
1029.903	-56.83113
1030.07	16.89574
1030.237	-38.39941
1030.404	-1.53598
1030.572	-32.25551
1030.739	-40.44738
1030.906	31.23152
1031.073	14.84777
1031.24	-1.53598
1031.407	96.76652
1031.574	-42.49535
1031.741	2.55996
1031.908	-95.74254
1032.075	29.18355
1032.242	-34.30348
1032.409	-7.67988
1032.576	16.89574
1032.743	-17.91973
1032.91	-34.30348
1033.076	8.70387
1033.243	-40.44738
1033.41	31.23152
1033.577	-60.92707
1033.744	4.60793
1033.91	-67.07098
1034.077	-42.49535
1034.244	-56.83113
1034.41	-7.67988
1034.577	12.7998
1034.744	-9.72785
1034.91	-40.44738
1035.077	8.70387
1035.244	25.08762
1035.41	-11.77582
1035.577	-26.1116
1035.743	-7.67988
1035.91	-38.39941
1036.076	-71.16691
1036.243	-40.44738
1036.409	61.95105
1036.576	-44.54332
1036.742	-54.78316
1036.908	-56.83113
1037.075	-19.9677
1037.241	-34.30348
1037.408	20.99168
1037.574	23.03965
1037.74	14.84777
1037.906	-50.68723
1038.073	35.32746
1038.239	-46.59129
1038.405	-13.82379
1038.571	-3.58395
1038.738	-17.91973
1038.904	-22.01566
1039.07	-56.83113
1039.236	-40.44738
1039.402	39.4234
1039.568	16.89574
1039.734	-24.06363
1039.9	-34.30348
1040.066	-17.91973
1040.232	-56.83113
1040.398	10.75184
1040.564	-58.8791
1040.73	-34.30348
1040.896	-24.06363
1041.062	16.89574
1041.228	-85.5027
1041.394	59.90309
1041.56	-7.67988
1041.725	-7.67988
1041.891	-56.83113
1042.057	16.89574
1042.223	53.75918
1042.389	-58.8791
1042.554	8.70387
1042.72	-15.87176
1042.886	23.03965
1043.051	-105.98238
1043.217	-71.16691
1043.383	-11.77582
1043.548	-17.91973
1043.714	10.75184
1043.879	-83.45473
1044.045	2.55996
1044.21	0.51199
1044.376	-3.58395
1044.541	-26.1116
1044.707	2.55996
1044.872	-7.67988
1045.038	-11.77582
1045.203	43.51934
1045.369	51.71121
1045.534	-32.25551
1045.699	31.23152
1045.865	14.84777
1046.03	-36.35145
1046.195	-22.01566
1046.361	-34.30348
1046.526	20.99168
1046.691	-36.35145
1046.856	-128.51004
1047.021	-48.63926
1047.187	-24.06363
1047.352	-17.91973
1047.517	29.18355
1047.682	-58.8791
1047.847	-32.25551
1048.012	39.4234
1048.177	-36.35145
1048.342	-46.59129
1048.507	-5.63191
1048.672	-54.78316
1048.837	6.6559
1049.002	-40.44738
1049.167	37.37543
1049.332	-46.59129
1049.497	16.89574
1049.662	20.99168
1049.827	-58.8791
1049.992	8.70387
1050.156	-22.01566
1050.321	-44.54332
1050.486	-40.44738
1050.651	-13.82379
1050.816	-114.17426
1050.98	-38.39941
1051.145	-38.39941
1051.31	8.70387
1051.474	-9.72785
1051.639	-36.35145
1051.804	-54.78316
1051.968	68.09496
1052.133	-26.1116
1052.297	-40.44738
1052.462	2.55996
1052.626	-5.63191
1052.791	10.75184
1052.955	-73.21488
1053.12	-97.79051
1053.284	-69.11895
1053.449	-13.82379
1053.613	35.32746
1053.777	8.70387
1053.942	0.51199
1054.106	-5.63191
1054.27	8.70387
1054.435	-38.39941
1054.599	6.6559
1054.763	-75.26285
1054.928	53.75918
1055.092	-15.87176
1055.256	-7.67988
1055.42	-77.31082
1055.584	-19.9677
1055.748	-46.59129
1055.913	-24.06363
1056.077	-34.30348
1056.241	-3.58395
1056.405	47.61527
1056.569	-75.26285
1056.733	-19.9677
1056.897	6.6559
1057.061	-13.82379
1057.225	-44.54332
1057.389	25.08762
1057.553	-73.21488
1057.717	-11.77582
1057.88	-101.88645
1058.044	-9.72785
1058.208	14.84777
1058.372	-93.69457
1058.536	0.51199
1058.7	-34.30348
1058.863	18.94371
1059.027	-46.59129
1059.191	-30.20754
1059.355	-15.87176
1059.518	-50.68723
1059.682	-19.9677
1059.846	33.27949
1060.009	-62.97504
1060.173	-69.11895
1060.336	25.08762
1060.5	4.60793
1060.663	-3.58395
1060.827	-32.25551
1060.99	-40.44738
1061.154	-11.77582
1061.317	-34.30348
1061.481	-22.01566
1061.644	27.13559
1061.808	6.6559
1061.971	-67.07098
1062.134	-32.25551
1062.298	-17.91973
1062.461	-54.78316
1062.624	-52.7352
1062.788	10.75184
1062.951	4.60793
1063.114	-13.82379
1063.277	10.75184
1063.441	-15.87176
1063.604	10.75184
1063.767	-19.9677
1063.93	6.6559
1064.093	-5.63191
1064.256	12.7998
1064.419	-69.11895
1064.582	-65.02301
1064.745	-11.77582
1064.908	-60.92707
1065.071	-36.35145
1065.234	-11.77582
1065.397	-56.83113
1065.56	-38.39941
1065.723	6.6559
1065.886	-15.87176
1066.049	-26.1116
1066.212	-38.39941
1066.375	-105.98238
1066.537	10.75184
1066.7	-91.6466
1066.863	-26.1116
1067.026	-36.35145
1067.189	-13.82379
1067.351	20.99168
1067.514	-52.7352
1067.677	4.60793
1067.839	0.51199
1068.002	35.32746
1068.165	14.84777
1068.327	-54.78316
1068.49	-9.72785
1068.652	-79.35879
1068.815	-38.39941
1068.977	-19.9677
1069.14	-34.30348
1069.302	10.75184
1069.465	-19.9677
1069.627	53.75918
1069.79	-65.02301
1069.952	-54.78316
1070.114	-52.7352
1070.277	-44.54332
1070.439	-36.35145
1070.601	-24.06363
1070.764	-65.02301
1070.926	0.51199
1071.088	-65.02301
1071.25	53.75918
1071.413	-34.30348
1071.575	-7.67988
1071.737	-5.63191
1071.899	-1.53598
1072.061	-54.78316
1072.223	6.6559
1072.385	-40.44738
1072.547	-19.9677
1072.71	29.18355
1072.872	16.89574
1073.034	-60.92707
1073.196	0.51199
1073.358	-54.78316
1073.519	-11.77582
1073.681	0.51199
1073.843	4.60793
1074.005	57.85512
1074.167	2.55996
1074.329	4.60793
1074.491	39.4234
1074.652	-54.78316
1074.814	4.60793
1074.976	-30.20754
1075.138	-46.59129
1075.299	-40.44738
1075.461	37.37543
1075.623	-52.7352
1075.785	4.60793
1075.946	-67.07098
1076.108	-17.91973
1076.269	-30.20754
1076.431	41.47137
1076.593	-11.77582
1076.754	-1.53598
1076.916	4.60793
1077.077	-40.44738
1077.239	-52.7352
1077.4	-38.39941
1077.561	25.08762
1077.723	12.7998
1077.884	57.85512
1078.046	-34.30348
1078.207	29.18355
1078.368	-48.63926
1078.53	-67.07098
1078.691	-73.21488
1078.852	0.51199
1079.013	25.08762
1079.175	-30.20754
1079.336	-69.11895
1079.497	-56.83113
1079.658	-75.26285
1079.819	-54.78316
1079.981	-34.30348
1080.142	-24.06363
1080.303	-69.11895
1080.464	2.55996
1080.625	55.80715
1080.786	-126.46207
1080.947	-34.30348
1081.108	-7.67988
1081.269	-71.16691
1081.43	-17.91973
1081.591	-3.58395
1081.752	-22.01566
1081.912	-32.25551
1082.073	-19.9677
1082.234	-91.6466
1082.395	-54.78316
1082.556	6.6559
1082.717	-1.53598
1082.877	-13.82379
1083.038	-97.79051
1083.199	-40.44738
1083.359	-13.82379
1083.52	47.61527
1083.681	0.51199
1083.841	-36.35145
1084.002	27.13559
1084.163	-95.74254
1084.323	-24.06363
1084.484	-81.40676
1084.644	16.89574
1084.805	-67.07098
1084.965	-1.53598
1085.126	-69.11895
1085.286	23.03965
1085.447	-7.67988
1085.607	-28.15957
1085.767	10.75184
1085.928	-48.63926
1086.088	-132.60598
1086.249	-15.87176
1086.409	-3.58395
1086.569	-48.63926
1086.729	-40.44738
1086.89	-54.78316
1087.05	-3.58395
1087.21	-124.4141
1087.37	-13.82379
1087.53	35.32746
1087.691	-44.54332
1087.851	49.66324
1088.011	-97.79051
1088.171	-15.87176
1088.331	-36.35145
1088.491	4.60793
1088.651	29.18355
1088.811	-48.63926
1088.971	-1.53598
1089.131	25.08762
1089.291	-26.1116
1089.451	20.99168
1089.611	-69.11895
1089.771	-22.01566
1089.93	-7.67988
1090.09	-28.15957
1090.25	-19.9677
1090.41	-38.39941
1090.57	45.5673
1090.729	0.51199
1090.889	-11.77582
1091.049	-89.59863
1091.208	-3.58395
1091.368	-13.82379
1091.528	41.47137
1091.687	12.7998
1091.847	-17.91973
1092.007	37.37543
1092.166	-42.49535
1092.326	51.71121
1092.485	-99.83848
1092.645	-38.39941
1092.804	-3.58395
1092.964	23.03965
1093.123	-32.25551
1093.282	2.55996
1093.442	-9.72785
1093.601	-7.67988
1093.761	8.70387
1093.92	2.55996
1094.079	8.70387
1094.239	-32.25551
1094.398	-77.31082
1094.557	-69.11895
1094.716	8.70387
1094.876	-36.35145
1095.035	-71.16691
1095.194	-40.44738
1095.353	2.55996
1095.512	-9.72785
1095.671	41.47137
1095.83	-42.49535
1095.989	-28.15957
1096.148	-73.21488
1096.307	4.60793
1096.466	-11.77582
1096.625	45.5673
1096.784	35.32746
1096.943	-1.53598
1097.102	-69.11895
1097.261	-58.8791
1097.42	-22.01566
1097.579	12.7998
1097.738	-67.07098
1097.897	-60.92707
1098.055	-32.25551
1098.214	-26.1116
1098.373	12.7998
1098.532	-26.1116
1098.69	-89.59863
1098.849	-19.9677
1099.008	-56.83113
1099.166	-22.01566
1099.325	-11.77582
1099.484	31.23152
1099.642	-50.68723
1099.801	33.27949
1099.959	-9.72785
1100.118	-11.77582
1100.276	-73.21488
1100.435	-56.83113
1100.593	-26.1116
1100.752	0.51199
1100.91	35.32746
1101.068	-75.26285
1101.227	72.1909
1101.385	20.99168
1101.544	23.03965
1101.702	-17.91973
1101.86	-95.74254
1102.018	-69.11895
1102.177	-77.31082
1102.335	-56.83113
1102.493	-42.49535
1102.651	-54.78316
1102.809	41.47137
1102.968	0.51199
1103.126	-101.88645
1103.284	-7.67988
1103.442	-19.9677
1103.6	-46.59129
1103.758	25.08762
1103.916	-48.63926
1104.074	14.84777
1104.232	-79.35879
1104.39	-26.1116
1104.548	-3.58395
1104.706	-28.15957
1104.864	0.51199
1105.022	-65.02301
1105.179	41.47137
1105.337	39.4234
1105.495	-28.15957
1105.653	-24.06363
1105.811	-19.9677
1105.968	-46.59129
1106.126	29.18355
1106.284	-56.83113
1106.441	76.28684
1106.599	6.6559
1106.757	-15.87176
1106.914	-32.25551
1107.072	-34.30348
1107.23	-24.06363
1107.387	-69.11895
1107.545	-5.63191
1107.702	-38.39941
1107.86	-19.9677
1108.017	12.7998
1108.175	-7.67988
1108.332	45.5673
1108.489	6.6559
1108.647	-7.67988
1108.804	-44.54332
1108.962	33.27949
1109.119	10.75184
1109.276	-28.15957
1109.433	0.51199
1109.591	-1.53598
1109.748	14.84777
1109.905	-19.9677
1110.062	61.95105
1110.22	16.89574
1110.377	10.75184
1110.534	-26.1116
1110.691	0.51199
1110.848	55.80715
1111.005	-9.72785
1111.162	-97.79051
1111.319	-30.20754
1111.476	33.27949
1111.633	-11.77582
1111.79	27.13559
1111.947	-7.67988
1112.104	4.60793
1112.261	-69.11895
1112.418	-32.25551
1112.575	-19.9677
1112.732	-69.11895
1112.888	41.47137
1113.045	10.75184
1113.202	-42.49535
1113.359	-58.8791
1113.515	-28.15957
1113.672	-28.15957
1113.829	14.84777
1113.985	-19.9677
1114.142	-28.15957
1114.299	-26.1116
1114.455	-32.25551
1114.612	25.08762
1114.769	-15.87176
1114.925	14.84777
1115.082	4.60793
1115.238	-26.1116
1115.395	-69.11895
1115.551	-44.54332
1115.707	-42.49535
1115.864	12.7998
1116.02	41.47137
1116.177	16.89574
1116.333	39.4234
1116.489	-73.21488
1116.646	-40.44738
1116.802	78.3348
1116.958	-32.25551
1117.114	-81.40676
1117.271	-60.92707
1117.427	14.84777
1117.583	-95.74254
1117.739	23.03965
1117.895	-58.8791
1118.051	27.13559
1118.208	-22.01566
1118.364	33.27949
1118.52	-75.26285
1118.676	14.84777
1118.832	-24.06363
1118.988	-13.82379
1119.144	-60.92707
1119.3	-44.54332
1119.456	-101.88645
1119.611	-1.53598
1119.767	37.37543
1119.923	43.51934
1120.079	-3.58395
1120.235	-13.82379
1120.391	29.18355
1120.546	-112.12629
1120.702	-9.72785
1120.858	6.6559
1121.014	-56.83113
1121.169	-5.63191
1121.325	-28.15957
1121.481	43.51934
1121.636	33.27949
1121.792	-110.07832
1121.947	-48.63926
1122.103	-89.59863
1122.259	59.90309
1122.414	12.7998
1122.57	14.84777
1122.725	-32.25551
1122.881	-40.44738
1123.036	29.18355
1123.191	-1.53598
1123.347	10.75184
1123.502	-30.20754
1123.657	-11.77582
1123.813	-5.63191
1123.968	4.60793
1124.123	-56.83113
1124.279	29.18355
1124.434	-5.63191
1124.589	-52.7352
1124.744	23.03965
1124.9	23.03965
1125.055	-67.07098
1125.21	-13.82379
1125.365	-71.16691
1125.52	45.5673
1125.675	4.60793
1125.83	14.84777
1125.985	12.7998
1126.14	-11.77582
1126.295	-77.31082
1126.45	-62.97504
1126.605	33.27949
