Data from uniphase1122p_USB4C031521__0__16-13-14-685.txt Node

Date: Wed May 06 16:13:14 CEST 2026
User: FIDOPA_3
Spectrometer: USB4C03152
Scans to average: 1
Trigger mode: 4
Integration Time (sec): 3.000000E-3
Electric dark correction enabled: true
Boxcar width: 0
XAxis mode: Wavelengths
Number of Pixels in Spectrum: 3648
>>>>>Begin Spectral Data<<<<<
445.929	-17.40773
446.14	-17.40773
446.351	-17.40773
446.562	-19.4557
446.773	-17.40773
446.984	-31.74352
447.194	21.50367
447.405	21.50367
447.616	-13.3118
447.827	-7.16789
448.038	15.35977
448.249	-11.26383
448.459	58.36711
448.67	-80.89477
448.881	-9.21586
449.092	31.74352
449.303	5.11992
449.513	-3.07195
449.724	11.26383
449.935	-3.07195
450.146	13.3118
450.356	52.2232
450.567	3.07195
450.778	-29.69555
450.988	50.17523
451.199	27.64758
451.41	-48.12727
451.62	-7.16789
451.831	13.3118
452.042	82.94273
452.252	9.21586
452.463	-35.83945
452.674	-35.83945
452.884	11.26383
453.095	-5.11992
453.305	-29.69555
453.516	-17.40773
453.727	-74.75086
453.937	13.3118
454.148	1.02398
454.358	37.88742
454.569	-54.27117
454.779	-17.40773
454.99	-25.59961
455.2	-17.40773
455.411	-11.26383
455.621	-11.26383
455.832	11.26383
456.042	-7.16789
456.253	-11.26383
456.463	-15.35977
456.674	-19.4557
456.884	-23.55164
457.095	-21.50367
457.305	50.17523
457.515	31.74352
457.726	56.31914
457.936	13.3118
458.147	3.07195
458.357	-17.40773
458.567	-72.70289
458.778	56.31914
458.988	-3.07195
459.198	-39.93539
459.409	-46.0793
459.619	-33.79148
459.829	1.02398
460.039	37.88742
460.25	-7.16789
460.46	3.07195
460.67	-3.07195
460.881	-1.02398
461.091	19.4557
461.301	25.59961
461.511	-76.79883
461.721	-5.11992
461.932	-11.26383
462.142	-33.79148
462.352	25.59961
462.562	-25.59961
462.772	-52.2232
462.983	-39.93539
463.193	1.02398
463.403	-35.83945
463.613	1.02398
463.823	7.16789
464.033	19.4557
464.243	-7.16789
464.453	48.12727
464.664	7.16789
464.874	-5.11992
465.084	5.11992
465.294	29.69555
465.504	54.27117
465.714	-54.27117
465.924	-5.11992
466.134	-37.88742
466.344	33.79148
466.554	37.88742
466.764	-25.59961
466.974	9.21586
467.184	31.74352
467.394	-50.17523
467.604	37.88742
467.814	29.69555
468.024	-15.35977
468.233	25.59961
468.443	-13.3118
468.653	52.2232
468.863	33.79148
469.073	-46.0793
469.283	-1.02398
469.493	25.59961
469.703	-64.51102
469.912	11.26383
470.122	33.79148
470.332	-17.40773
470.542	19.4557
470.752	-52.2232
470.962	-7.16789
471.171	-15.35977
471.381	21.50367
471.591	-41.98336
471.801	-29.69555
472.01	-41.98336
472.22	44.03133
472.43	39.93539
472.64	46.0793
472.849	-35.83945
473.059	-29.69555
473.269	-33.79148
473.478	25.59961
473.688	19.4557
473.898	31.74352
474.107	76.79883
474.317	-17.40773
474.527	5.11992
474.736	19.4557
474.946	-9.21586
475.155	-13.3118
475.365	58.36711
475.575	-25.59961
475.784	31.74352
475.994	-13.3118
476.203	-13.3118
476.413	-15.35977
476.622	-9.21586
476.832	-41.98336
477.041	39.93539
477.251	-37.88742
477.46	-68.60695
477.67	-33.79148
477.879	33.79148
478.089	-54.27117
478.298	91.13461
478.508	-17.40773
478.717	48.12727
478.927	-97.27852
479.136	31.74352
479.345	-62.46305
479.555	-3.07195
479.764	-76.79883
479.974	-44.03133
480.183	13.3118
480.392	23.55164
480.602	3.07195
480.811	37.88742
481.02	46.0793
481.23	35.83945
481.439	3.07195
481.648	3.07195
481.858	33.79148
482.067	-44.03133
482.276	-9.21586
482.485	-33.79148
482.695	-29.69555
482.904	39.93539
483.113	-35.83945
483.322	-3.07195
483.532	17.40773
483.741	-27.64758
483.95	41.98336
484.159	-23.55164
484.368	-76.79883
484.577	-9.21586
484.787	-13.3118
484.996	64.51102
485.205	-11.26383
485.414	23.55164
485.623	-41.98336
485.832	52.2232
486.041	-62.46305
486.25	-21.50367
486.459	11.26383
486.669	44.03133
486.878	56.31914
487.087	19.4557
487.296	-48.12727
487.505	-15.35977
487.714	25.59961
487.923	-41.98336
488.132	3.07195
488.341	-50.17523
488.55	-70.65492
488.759	-17.40773
488.968	58.36711
489.177	66.55898
489.385	39.93539
489.594	-35.83945
489.803	33.79148
490.012	-99.32648
490.221	-84.9907
490.43	33.79148
490.639	-50.17523
490.848	3.07195
491.057	15.35977
491.265	-5.11992
491.474	-5.11992
491.683	-11.26383
491.892	-41.98336
492.101	-31.74352
492.31	11.26383
492.518	-3.07195
492.727	-27.64758
492.936	11.26383
493.145	-29.69555
493.353	1.02398
493.562	-11.26383
493.771	-9.21586
493.98	-27.64758
494.188	70.65492
494.397	5.11992
494.606	-41.98336
494.814	66.55898
495.023	48.12727
495.232	25.59961
495.44	33.79148
495.649	-7.16789
495.858	5.11992
496.066	13.3118
496.275	80.89477
496.483	-5.11992
496.692	31.74352
496.901	19.4557
497.109	-13.3118
497.318	29.69555
497.526	-19.4557
497.735	-13.3118
497.943	-41.98336
498.152	-39.93539
498.36	35.83945
498.569	5.11992
498.777	-27.64758
498.986	7.16789
499.194	19.4557
499.403	-7.16789
499.611	-9.21586
499.82	9.21586
500.028	35.83945
500.236	-62.46305
500.445	-15.35977
500.653	-21.50367
500.862	64.51102
501.07	-15.35977
501.278	-68.60695
501.487	5.11992
501.695	78.8468
501.903	31.74352
502.112	62.46305
502.32	-9.21586
502.528	33.79148
502.737	-62.46305
502.945	-39.93539
503.153	-50.17523
503.361	33.79148
503.57	13.3118
503.778	29.69555
503.986	-7.16789
504.194	21.50367
504.403	48.12727
504.611	50.17523
504.819	1.02398
505.027	27.64758
505.235	-31.74352
505.443	82.94273
505.652	17.40773
505.86	17.40773
506.068	9.21586
506.276	-11.26383
506.484	-5.11992
506.692	17.40773
506.9	-37.88742
507.108	-25.59961
507.316	50.17523
507.524	23.55164
507.733	35.83945
507.941	-15.35977
508.149	-15.35977
508.357	48.12727
508.565	-48.12727
508.773	9.21586
508.981	-11.26383
509.189	15.35977
509.397	39.93539
509.605	-21.50367
509.812	-35.83945
510.02	-17.40773
510.228	-23.55164
510.436	19.4557
510.644	17.40773
510.852	-15.35977
511.06	-29.69555
511.268	17.40773
511.476	-44.03133
511.684	-1.02398
511.891	-7.16789
512.099	37.88742
512.307	19.4557
512.515	1.02398
512.723	50.17523
512.93	21.50367
513.138	50.17523
513.346	7.16789
513.554	119.80617
513.761	-48.12727
513.969	5.11992
514.177	15.35977
514.385	-70.65492
514.592	3.07195
514.8	33.79148
515.008	33.79148
515.215	-35.83945
515.423	39.93539
515.631	5.11992
515.838	-74.75086
516.046	-23.55164
516.254	15.35977
516.461	19.4557
516.669	-5.11992
516.876	13.3118
517.084	46.0793
517.292	31.74352
517.499	-37.88742
517.707	1.02398
517.914	-1.02398
518.122	-19.4557
518.329	15.35977
518.537	5.11992
518.744	-46.0793
518.952	31.74352
519.159	37.88742
519.367	-1.02398
519.574	7.16789
519.782	31.74352
519.989	-17.40773
520.197	-44.03133
520.404	-1.02398
520.611	-15.35977
520.819	-62.46305
521.026	15.35977
521.234	23.55164
521.441	-11.26383
521.648	54.27117
521.856	21.50367
522.063	17.40773
522.27	-33.79148
522.478	33.79148
522.685	-7.16789
522.892	11.26383
523.1	39.93539
523.307	1.02398
523.514	21.50367
523.721	-33.79148
523.929	-1.02398
524.136	-15.35977
524.343	-1.02398
524.55	66.55898
524.757	-74.75086
524.965	54.27117
525.172	56.31914
525.379	-39.93539
525.586	-19.4557
525.793	3.07195
526	9.21586
526.208	23.55164
526.415	44.03133
526.622	-48.12727
526.829	82.94273
527.036	-35.83945
527.243	-13.3118
527.45	-82.94273
527.657	-1.02398
527.864	39.93539
528.071	9.21586
528.278	29.69555
528.485	25.59961
528.692	-5.11992
528.899	-19.4557
529.106	56.31914
529.313	27.64758
529.52	64.51102
529.727	-46.0793
529.934	25.59961
530.141	-31.74352
530.348	-35.83945
530.555	58.36711
530.762	3.07195
530.968	31.74352
531.175	29.69555
531.382	31.74352
531.589	-29.69555
531.796	-21.50367
532.003	23.55164
532.21	13.3118
532.416	9.21586
532.623	1.02398
532.83	33.79148
533.037	-33.79148
533.243	13.3118
533.45	-62.46305
533.657	7.16789
533.864	62.46305
534.07	-9.21586
534.277	-41.98336
534.484	-13.3118
534.691	9.21586
534.897	11.26383
535.104	35.83945
535.311	-11.26383
535.517	-80.89477
535.724	-27.64758
535.93	39.93539
536.137	-1.02398
536.344	-119.80617
536.55	-54.27117
536.757	56.31914
536.963	-5.11992
537.17	5.11992
537.377	-78.8468
537.583	-27.64758
537.79	-46.0793
537.996	-7.16789
538.203	-29.69555
538.409	-27.64758
538.616	3.07195
538.822	-17.40773
539.029	7.16789
539.235	-29.69555
539.442	-52.2232
539.648	-33.79148
539.854	-60.41508
540.061	-56.31914
540.267	-21.50367
540.474	-89.08664
540.68	-58.36711
540.886	-1.02398
541.093	31.74352
541.299	-39.93539
541.505	-62.46305
541.712	-19.4557
541.918	13.3118
542.124	21.50367
542.331	1.02398
542.537	29.69555
542.743	3.07195
542.949	-35.83945
543.156	-11.26383
543.362	25.59961
543.568	-17.40773
543.774	-50.17523
543.981	-7.16789
544.187	11.26383
544.393	19.4557
544.599	19.4557
544.805	-21.50367
545.011	35.83945
545.218	-15.35977
545.424	-1.02398
545.63	-31.74352
545.836	-35.83945
546.042	-15.35977
546.248	-58.36711
546.454	1.02398
546.66	97.27852
546.866	1.02398
547.072	-76.79883
547.278	1.02398
547.484	-5.11992
547.69	-15.35977
547.896	-52.2232
548.102	33.79148
548.308	-7.16789
548.514	-23.55164
548.72	-58.36711
548.926	13.3118
549.132	-5.11992
549.338	33.79148
549.544	-41.98336
549.75	33.79148
549.956	-35.83945
550.162	66.55898
550.368	15.35977
550.574	-5.11992
550.779	-35.83945
550.985	-46.0793
551.191	29.69555
551.397	-60.41508
551.603	72.70289
551.808	5.11992
552.014	35.83945
552.22	-48.12727
552.426	78.8468
552.632	1.02398
552.837	152.57367
553.043	7.16789
553.249	-5.11992
553.454	13.3118
553.66	35.83945
553.866	15.35977
554.071	-3.07195
554.277	13.3118
554.483	-15.35977
554.688	-25.59961
554.894	-54.27117
555.1	21.50367
555.305	-3.07195
555.511	-5.11992
555.716	-31.74352
555.922	21.50367
556.128	-11.26383
556.333	-52.2232
556.539	68.60695
556.744	-19.4557
556.95	-1.02398
557.155	-56.31914
557.361	15.35977
557.566	-9.21586
557.772	27.64758
557.977	23.55164
558.183	64.51102
558.388	-5.11992
558.594	-23.55164
558.799	-13.3118
559.004	5.11992
559.21	-25.59961
559.415	-9.21586
559.621	3.07195
559.826	9.21586
560.031	-17.40773
560.237	56.31914
560.442	-25.59961
560.647	-33.79148
560.853	23.55164
561.058	-3.07195
561.263	39.93539
561.468	25.59961
561.674	-5.11992
561.879	-64.51102
562.084	-1.02398
562.289	-21.50367
562.495	31.74352
562.7	-19.4557
562.905	-11.26383
563.11	5.11992
563.315	-29.69555
563.521	-25.59961
563.726	-27.64758
563.931	-46.0793
564.136	-31.74352
564.341	41.98336
564.546	11.26383
564.751	7.16789
564.956	13.3118
565.162	-29.69555
565.367	48.12727
565.572	-11.26383
565.777	-50.17523
565.982	-19.4557
566.187	1.02398
566.392	5.11992
566.597	-21.50367
566.802	-56.31914
567.007	-13.3118
567.212	-15.35977
567.417	21.50367
567.622	-11.26383
567.827	-29.69555
568.031	-1.02398
568.236	13.3118
568.441	-23.55164
568.646	-19.4557
568.851	-50.17523
569.056	64.51102
569.261	35.83945
569.466	17.40773
569.67	-76.79883
569.875	-48.12727
570.08	25.59961
570.285	-1.02398
570.49	41.98336
570.694	-33.79148
570.899	17.40773
571.104	11.26383
571.309	21.50367
571.513	35.83945
571.718	-31.74352
571.923	37.88742
572.128	-76.79883
572.332	31.74352
572.537	-1.02398
572.742	-15.35977
572.946	15.35977
573.151	27.64758
573.355	-50.17523
573.56	111.6143
573.765	29.69555
573.969	-52.2232
574.174	-21.50367
574.378	-21.50367
574.583	41.98336
574.788	68.60695
574.992	-5.11992
575.197	-17.40773
575.401	37.88742
575.606	-64.51102
575.81	1.02398
576.015	23.55164
576.219	-31.74352
576.424	89.08664
576.628	-13.3118
576.832	23.55164
577.037	-52.2232
577.241	17.40773
577.446	3.07195
577.65	-33.79148
577.854	21.50367
578.059	-64.51102
578.263	13.3118
578.467	-19.4557
578.672	41.98336
578.876	5.11992
579.08	-46.0793
579.285	-17.40773
579.489	87.03867
579.693	-29.69555
579.898	44.03133
580.102	5.11992
580.306	-41.98336
580.51	13.3118
580.715	-23.55164
580.919	21.50367
581.123	78.8468
581.327	13.3118
581.531	31.74352
581.735	-7.16789
581.94	-3.07195
582.144	-3.07195
582.348	-35.83945
582.552	23.55164
582.756	-13.3118
582.96	7.16789
583.164	-39.93539
583.368	-31.74352
583.572	41.98336
583.776	-5.11992
583.98	17.40773
584.185	-13.3118
584.389	-52.2232
584.593	11.26383
584.797	48.12727
585	33.79148
585.204	-48.12727
585.408	-11.26383
585.612	17.40773
585.816	23.55164
586.02	-48.12727
586.224	-74.75086
586.428	-44.03133
586.632	23.55164
586.836	29.69555
587.04	13.3118
587.244	-29.69555
587.447	-19.4557
587.651	-48.12727
587.855	11.26383
588.059	-9.21586
588.263	-7.16789
588.466	-29.69555
588.67	25.59961
588.874	-17.40773
589.078	-1.02398
589.281	-89.08664
589.485	17.40773
589.689	-23.55164
589.893	56.31914
590.096	3.07195
590.3	23.55164
590.504	1.02398
590.707	-3.07195
590.911	23.55164
591.115	-19.4557
591.318	-41.98336
591.522	44.03133
591.725	-52.2232
591.929	31.74352
592.133	-25.59961
592.336	11.26383
592.54	-80.89477
592.743	-62.46305
592.947	-58.36711
593.15	31.74352
593.354	-31.74352
593.557	-31.74352
593.761	13.3118
593.964	-11.26383
594.168	-44.03133
594.371	-7.16789
594.575	76.79883
594.778	-23.55164
594.981	-5.11992
595.185	37.88742
595.388	-37.88742
595.592	-3.07195
595.795	37.88742
595.998	-9.21586
596.202	-31.74352
596.405	-15.35977
596.608	27.64758
596.812	44.03133
597.015	-5.11992
597.218	11.26383
597.421	17.40773
597.625	23.55164
597.828	46.0793
598.031	17.40773
598.234	58.36711
598.438	13.3118
598.641	66.55898
598.844	17.40773
599.047	-54.27117
599.25	19.4557
599.453	-3.07195
599.657	-19.4557
599.86	-11.26383
600.063	-13.3118
600.266	35.83945
600.469	76.79883
600.672	29.69555
600.875	11.26383
601.078	9.21586
601.281	27.64758
601.484	56.31914
601.687	-1.02398
601.89	-3.07195
602.093	-29.69555
602.296	35.83945
602.499	-35.83945
602.702	-33.79148
602.905	33.79148
603.108	-66.55898
603.311	33.79148
603.514	39.93539
603.717	-27.64758
603.92	25.59961
604.123	-21.50367
604.326	-35.83945
604.529	39.93539
604.731	-23.55164
604.934	23.55164
605.137	37.88742
605.34	58.36711
605.543	-27.64758
605.745	-39.93539
605.948	-9.21586
606.151	-3.07195
606.354	-74.75086
606.557	-44.03133
606.759	15.35977
606.962	-41.98336
607.165	23.55164
607.367	29.69555
607.57	5.11992
607.773	7.16789
607.975	9.21586
608.178	9.21586
608.381	-33.79148
608.583	3.07195
608.786	-33.79148
608.989	-80.89477
609.191	-17.40773
609.394	-17.40773
609.596	-52.2232
609.799	-7.16789
610.001	-11.26383
610.204	-25.59961
610.406	-7.16789
610.609	21.50367
610.811	-82.94273
611.014	-68.60695
611.216	-50.17523
611.419	1.02398
611.621	-44.03133
611.824	-21.50367
612.026	58.36711
612.229	-31.74352
612.431	-3.07195
612.633	17.40773
612.836	-5.11992
613.038	1.02398
613.24	-13.3118
613.443	-19.4557
613.645	-23.55164
613.847	-52.2232
614.05	-48.12727
614.252	3.07195
614.454	39.93539
614.657	41.98336
614.859	-13.3118
615.061	50.17523
615.263	13.3118
615.466	-5.11992
615.668	-54.27117
615.87	29.69555
616.072	52.2232
616.274	-89.08664
616.476	-15.35977
616.679	35.83945
616.881	-33.79148
617.083	54.27117
617.285	-25.59961
617.487	-97.27852
617.689	9.21586
617.891	-9.21586
618.093	-9.21586
618.295	-21.50367
618.497	-5.11992
618.699	-9.21586
618.901	-5.11992
619.103	-76.79883
619.305	-39.93539
619.507	46.0793
619.709	-19.4557
619.911	-29.69555
620.113	-25.59961
620.315	-35.83945
620.517	-5.11992
620.719	19.4557
620.921	50.17523
621.123	-74.75086
621.325	-127.99805
621.527	25.59961
621.728	-1.02398
621.93	9.21586
622.132	-37.88742
622.334	56.31914
622.536	1.02398
622.737	-19.4557
622.939	50.17523
623.141	9.21586
623.343	1.02398
623.544	-35.83945
623.746	13.3118
623.948	15.35977
624.15	7.16789
624.351	5.11992
624.553	-58.36711
624.755	62.46305
624.956	23.55164
625.158	-11.26383
625.36	-46.0793
625.561	50.17523
625.763	-48.12727
625.964	-13.3118
626.166	-9.21586
626.367	-27.64758
626.569	60.41508
626.771	-58.36711
626.972	31.74352
627.174	9.21586
627.375	3.07195
627.577	-7.16789
627.778	44.03133
627.98	3.07195
628.181	-21.50367
628.382	25.59961
628.584	-19.4557
628.785	109.56633
628.987	9.21586
629.188	11.26383
629.39	37.88742
629.591	-19.4557
629.792	3.07195
629.994	23.55164
630.195	33.79148
630.396	37.88742
630.598	-11.26383
630.799	11.26383
631	386.04211
631.201	7740.29789
631.403	24244.87805
631.604	44503.38492
631.805	52103.39695
632.006	49950.9818
632.208	58157.19258
632.409	46213.43883
632.61	37491.13992
632.811	25969.26773
633.012	13660.97555
633.214	6253.47258
633.415	2675.67117
633.616	433.14539
633.817	136.18992
634.018	64.51102
634.219	31.74352
634.42	33.79148
634.621	19.4557
634.822	15.35977
635.023	-27.64758
635.224	70.65492
635.425	17.40773
635.626	48.12727
635.827	7.16789
636.028	-44.03133
636.229	15.35977
636.43	-17.40773
636.631	13.3118
636.832	-37.88742
637.033	-37.88742
637.234	29.69555
637.435	-5.11992
637.636	-21.50367
637.837	-50.17523
638.037	41.98336
638.238	37.88742
638.439	23.55164
638.64	-17.40773
638.841	23.55164
639.042	64.51102
639.242	-31.74352
639.443	-50.17523
639.644	-5.11992
639.845	-25.59961
640.045	-5.11992
640.246	29.69555
640.447	-1.02398
640.648	-11.26383
640.848	9.21586
641.049	-46.0793
641.25	3.07195
641.45	-78.8468
641.651	29.69555
641.851	31.74352
642.052	-44.03133
642.253	-23.55164
642.453	21.50367
642.654	-46.0793
642.854	31.74352
643.055	23.55164
643.255	19.4557
643.456	-3.07195
643.656	-39.93539
643.857	-68.60695
644.057	-80.89477
644.258	-3.07195
644.458	-7.16789
644.659	29.69555
644.859	50.17523
645.06	-44.03133
645.26	5.11992
645.46	-17.40773
645.661	1.02398
645.861	-27.64758
646.062	9.21586
646.262	-15.35977
646.462	-23.55164
646.663	-3.07195
646.863	17.40773
647.063	25.59961
647.263	50.17523
647.464	-3.07195
647.664	-33.79148
647.864	-56.31914
648.064	-11.26383
648.265	54.27117
648.465	-31.74352
648.665	3.07195
648.865	41.98336
649.065	-3.07195
649.266	-9.21586
649.466	-37.88742
649.666	-37.88742
649.866	-31.74352
650.066	17.40773
650.266	21.50367
650.466	3.07195
650.666	-15.35977
650.866	-15.35977
651.067	60.41508
651.267	66.55898
651.467	25.59961
651.667	68.60695
651.867	54.27117
652.067	-31.74352
652.267	-13.3118
652.466	33.79148
652.666	-25.59961
652.866	1.02398
653.066	64.51102
653.266	5.11992
653.466	62.46305
653.666	33.79148
653.866	-52.2232
654.066	39.93539
654.266	19.4557
654.465	-29.69555
654.665	21.50367
654.865	-13.3118
655.065	11.26383
655.265	54.27117
655.464	1.02398
655.664	-31.74352
655.864	60.41508
656.064	31.74352
656.263	-44.03133
656.463	-19.4557
656.663	1.02398
656.862	-35.83945
657.062	39.93539
657.262	37.88742
657.461	-1.02398
657.661	23.55164
657.861	7.16789
658.06	39.93539
658.26	-54.27117
658.459	3.07195
658.659	-52.2232
658.858	44.03133
659.058	-21.50367
659.258	68.60695
659.457	37.88742
659.657	64.51102
659.856	-17.40773
660.056	-35.83945
660.255	-44.03133
660.454	-62.46305
660.654	-29.69555
660.853	11.26383
661.053	-7.16789
661.252	-27.64758
661.452	3.07195
661.651	-19.4557
661.85	-3.07195
662.05	-44.03133
662.249	39.93539
662.448	-31.74352
662.648	1.02398
662.847	-19.4557
663.046	15.35977
663.245	-3.07195
663.445	-31.74352
663.644	-21.50367
663.843	9.21586
664.042	-3.07195
664.242	3.07195
664.441	21.50367
664.64	17.40773
664.839	-1.02398
665.038	19.4557
665.237	-33.79148
665.437	-29.69555
665.636	9.21586
665.835	23.55164
666.034	-29.69555
666.233	21.50367
666.432	21.50367
666.631	-15.35977
666.83	9.21586
667.029	11.26383
667.228	37.88742
667.427	17.40773
667.626	-39.93539
667.825	60.41508
668.024	-52.2232
668.223	-39.93539
668.422	-35.83945
668.621	-5.11992
668.82	23.55164
669.019	-48.12727
669.218	25.59961
669.417	33.79148
669.615	-9.21586
669.814	5.11992
670.013	-27.64758
670.212	25.59961
670.411	54.27117
670.609	-95.23055
670.808	-29.69555
671.007	-103.42242
671.206	-21.50367
671.405	-17.40773
671.603	66.55898
671.802	7.16789
672.001	25.59961
672.199	-9.21586
672.398	-25.59961
672.597	-33.79148
672.795	-7.16789
672.994	-56.31914
673.193	56.31914
673.391	3.07195
673.59	7.16789
673.789	-29.69555
673.987	31.74352
674.186	-89.08664
674.384	-29.69555
674.583	37.88742
674.781	-21.50367
674.98	15.35977
675.178	66.55898
675.377	-37.88742
675.575	-33.79148
675.774	3.07195
675.972	39.93539
676.171	-29.69555
676.369	54.27117
676.567	11.26383
676.766	27.64758
676.964	-39.93539
677.163	33.79148
677.361	11.26383
677.559	54.27117
677.758	-25.59961
677.956	-11.26383
678.154	21.50367
678.353	35.83945
678.551	-7.16789
678.749	-48.12727
678.947	23.55164
679.146	-19.4557
679.344	-9.21586
679.542	-35.83945
679.74	-19.4557
679.938	19.4557
680.137	-35.83945
680.335	33.79148
680.533	66.55898
680.731	13.3118
680.929	-50.17523
681.127	-60.41508
681.325	9.21586
681.523	-25.59961
681.721	-7.16789
681.92	29.69555
682.118	17.40773
682.316	17.40773
682.514	9.21586
682.712	-37.88742
682.91	-111.6143
683.108	-13.3118
683.306	3.07195
683.504	19.4557
683.701	13.3118
683.899	-33.79148
684.097	-31.74352
684.295	-37.88742
684.493	-11.26383
684.691	48.12727
684.889	-52.2232
685.087	-99.32648
685.284	33.79148
685.482	1.02398
685.68	25.59961
685.878	3.07195
686.076	-1.02398
686.273	9.21586
686.471	-23.55164
686.669	60.41508
686.867	-3.07195
687.064	33.79148
687.262	7.16789
687.46	-17.40773
687.657	-48.12727
687.855	7.16789
688.053	-31.74352
688.25	1.02398
688.448	3.07195
688.646	39.93539
688.843	17.40773
689.041	-44.03133
689.238	-39.93539
689.436	1.02398
689.633	-74.75086
689.831	-44.03133
690.029	58.36711
690.226	-31.74352
690.424	5.11992
690.621	-33.79148
690.818	-48.12727
691.016	23.55164
691.213	15.35977
691.411	68.60695
691.608	-9.21586
691.806	109.56633
692.003	25.59961
692.2	-44.03133
692.398	1.02398
692.595	13.3118
692.792	-23.55164
692.99	1.02398
693.187	-1.02398
693.384	-52.2232
693.582	-5.11992
693.779	-13.3118
693.976	37.88742
694.173	-76.79883
694.371	25.59961
694.568	5.11992
694.765	-48.12727
694.962	-27.64758
695.159	-46.0793
695.356	-11.26383
695.554	-41.98336
695.751	-78.8468
695.948	-21.50367
696.145	27.64758
696.342	-1.02398
696.539	-27.64758
696.736	-1.02398
696.933	-23.55164
697.13	82.94273
697.327	-91.13461
697.524	-13.3118
697.721	-3.07195
697.918	11.26383
698.115	-52.2232
698.312	11.26383
698.509	13.3118
698.706	19.4557
698.903	17.40773
699.1	21.50367
699.297	29.69555
699.494	62.46305
699.691	9.21586
699.887	23.55164
700.084	7.16789
700.281	-3.07195
700.478	27.64758
700.675	-76.79883
700.871	-15.35977
701.068	-44.03133
701.265	29.69555
701.462	11.26383
701.658	-35.83945
701.855	15.35977
702.052	29.69555
702.249	15.35977
702.445	23.55164
702.642	37.88742
702.839	-44.03133
703.035	-15.35977
703.232	15.35977
703.428	31.74352
703.625	-60.41508
703.822	-44.03133
704.018	54.27117
704.215	-5.11992
704.411	-44.03133
704.608	9.21586
704.804	33.79148
705.001	5.11992
705.197	31.74352
705.394	5.11992
705.59	37.88742
705.787	35.83945
705.983	39.93539
706.18	-25.59961
706.376	-5.11992
706.572	19.4557
706.769	25.59961
706.965	-56.31914
707.161	-5.11992
707.358	1.02398
707.554	23.55164
707.75	21.50367
707.947	-15.35977
708.143	9.21586
708.339	-1.02398
708.536	-21.50367
708.732	-39.93539
708.928	-31.74352
709.124	-66.55898
709.32	-15.35977
709.517	-3.07195
709.713	39.93539
709.909	7.16789
710.105	-35.83945
710.301	-99.32648
710.497	-21.50367
710.693	3.07195
710.89	1.02398
711.086	-11.26383
711.282	58.36711
711.478	1.02398
711.674	-9.21586
711.87	9.21586
712.066	87.03867
712.262	-11.26383
712.458	25.59961
712.654	19.4557
712.85	-39.93539
713.046	1.02398
713.242	-1.02398
713.438	37.88742
713.633	-31.74352
713.829	-9.21586
714.025	-87.03867
714.221	-7.16789
714.417	-7.16789
714.613	13.3118
714.809	-17.40773
715.004	27.64758
715.2	62.46305
715.396	15.35977
715.592	-21.50367
715.788	-72.70289
715.983	54.27117
716.179	-25.59961
716.375	15.35977
716.57	-5.11992
716.766	-5.11992
716.962	-25.59961
717.157	27.64758
717.353	31.74352
717.549	-15.35977
717.744	-17.40773
717.94	7.16789
718.136	15.35977
718.331	33.79148
718.527	-23.55164
718.722	-33.79148
718.918	-31.74352
719.113	5.11992
719.309	-46.0793
719.504	-23.55164
719.7	-41.98336
719.895	31.74352
720.091	-15.35977
720.286	13.3118
720.482	-31.74352
720.677	-46.0793
720.872	66.55898
721.068	29.69555
721.263	11.26383
721.458	-1.02398
721.654	21.50367
721.849	-35.83945
722.044	-37.88742
722.24	-33.79148
722.435	-13.3118
722.63	-54.27117
722.826	31.74352
723.021	17.40773
723.216	-72.70289
723.411	-46.0793
723.606	-3.07195
723.802	7.16789
723.997	3.07195
724.192	-15.35977
724.387	35.83945
724.582	-15.35977
724.777	56.31914
724.973	-72.70289
725.168	7.16789
725.363	13.3118
725.558	-23.55164
725.753	31.74352
725.948	-17.40773
726.143	35.83945
726.338	11.26383
726.533	21.50367
726.728	-44.03133
726.923	-52.2232
727.118	5.11992
727.313	21.50367
727.508	-31.74352
727.703	21.50367
727.897	35.83945
728.092	-33.79148
728.287	-11.26383
728.482	-13.3118
728.677	87.03867
728.872	25.59961
729.067	76.79883
729.261	-23.55164
729.456	-1.02398
729.651	-50.17523
729.846	-11.26383
730.04	-9.21586
730.235	46.0793
730.43	-29.69555
730.625	7.16789
730.819	19.4557
731.014	-15.35977
731.209	-21.50367
731.403	-9.21586
731.598	3.07195
731.793	48.12727
731.987	-35.83945
732.182	-44.03133
732.376	-27.64758
732.571	35.83945
732.765	52.2232
732.96	33.79148
733.155	39.93539
733.349	15.35977
733.544	-11.26383
733.738	1.02398
733.932	-15.35977
734.127	9.21586
734.321	1.02398
734.516	-15.35977
734.71	-9.21586
734.905	-37.88742
735.099	-48.12727
735.293	7.16789
735.488	9.21586
735.682	-66.55898
735.876	-31.74352
736.071	13.3118
736.265	-33.79148
736.459	-31.74352
736.654	-15.35977
736.848	-31.74352
737.042	-15.35977
737.236	-31.74352
737.431	82.94273
737.625	87.03867
737.819	25.59961
738.013	-72.70289
738.207	50.17523
738.401	-15.35977
738.596	-27.64758
738.79	13.3118
738.984	17.40773
739.178	-41.98336
739.372	-50.17523
739.566	-3.07195
739.76	-9.21586
739.954	1.02398
740.148	37.88742
740.342	-17.40773
740.536	-9.21586
740.73	44.03133
740.924	-23.55164
741.118	-50.17523
741.312	5.11992
741.506	-27.64758
741.7	-50.17523
741.894	29.69555
742.087	-19.4557
742.281	1.02398
742.475	-29.69555
742.669	56.31914
742.863	-62.46305
743.057	-52.2232
743.25	3.07195
743.444	-11.26383
743.638	-31.74352
743.832	31.74352
744.025	-25.59961
744.219	-19.4557
744.413	-60.41508
744.607	-23.55164
744.8	46.0793
744.994	-31.74352
745.188	-17.40773
745.381	5.11992
745.575	-7.16789
745.768	-9.21586
745.962	-80.89477
746.156	-7.16789
746.349	78.8468
746.543	21.50367
746.736	-23.55164
746.93	-31.74352
747.123	48.12727
747.317	29.69555
747.51	70.65492
747.704	54.27117
747.897	-31.74352
748.091	-46.0793
748.284	17.40773
748.478	15.35977
748.671	-11.26383
748.864	-19.4557
749.058	58.36711
749.251	3.07195
749.444	-19.4557
749.638	-3.07195
749.831	29.69555
750.024	5.11992
750.218	-87.03867
750.411	-9.21586
750.604	-33.79148
750.797	99.32648
750.991	41.98336
751.184	5.11992
751.377	13.3118
751.57	35.83945
751.763	-13.3118
751.956	-44.03133
752.15	31.74352
752.343	54.27117
752.536	15.35977
752.729	-72.70289
752.922	-48.12727
753.115	66.55898
753.308	11.26383
753.501	17.40773
753.694	23.55164
753.887	23.55164
754.08	-33.79148
754.273	46.0793
754.466	1.02398
754.659	46.0793
754.852	-44.03133
755.045	58.36711
755.238	1.02398
755.431	3.07195
755.624	5.11992
755.817	-48.12727
756.009	-64.51102
756.202	1.02398
756.395	35.83945
756.588	39.93539
756.781	23.55164
756.973	-17.40773
757.166	-99.32648
757.359	46.0793
757.552	-7.16789
757.744	-33.79148
757.937	-23.55164
758.13	-9.21586
758.322	37.88742
758.515	39.93539
758.708	9.21586
758.9	-78.8468
759.093	-11.26383
759.286	58.36711
759.478	21.50367
759.671	50.17523
759.863	44.03133
760.056	-25.59961
760.248	11.26383
760.441	-25.59961
760.633	1.02398
760.826	15.35977
761.018	41.98336
761.211	-52.2232
761.403	-15.35977
761.596	17.40773
761.788	-15.35977
761.981	46.0793
762.173	33.79148
762.365	39.93539
762.558	-68.60695
762.75	-33.79148
762.942	9.21586
763.135	62.46305
763.327	-11.26383
763.519	9.21586
763.712	1.02398
763.904	15.35977
764.096	15.35977
764.288	-17.40773
764.481	-37.88742
764.673	17.40773
764.865	7.16789
765.057	-11.26383
765.249	60.41508
765.441	54.27117
765.634	-3.07195
765.826	23.55164
766.018	21.50367
766.21	-60.41508
766.402	68.60695
766.594	15.35977
766.786	-60.41508
766.978	54.27117
767.17	13.3118
767.362	-33.79148
767.554	-9.21586
767.746	-23.55164
767.938	-44.03133
768.13	-15.35977
768.322	-23.55164
768.514	33.79148
768.706	-27.64758
768.898	25.59961
769.089	37.88742
769.281	-9.21586
769.473	23.55164
769.665	52.2232
769.857	-3.07195
770.049	15.35977
770.24	17.40773
770.432	-3.07195
770.624	-9.21586
770.816	17.40773
771.007	5.11992
771.199	-35.83945
771.391	60.41508
771.582	-19.4557
771.774	41.98336
771.966	62.46305
772.157	5.11992
772.349	37.88742
772.541	11.26383
772.732	44.03133
772.924	17.40773
773.115	-7.16789
773.307	-48.12727
773.498	17.40773
773.69	11.26383
773.881	-1.02398
774.073	50.17523
774.264	3.07195
774.456	-19.4557
774.647	-11.26383
774.839	-39.93539
775.03	-29.69555
775.221	-21.50367
775.413	-25.59961
775.604	-37.88742
775.796	-25.59961
775.987	29.69555
776.178	-46.0793
776.37	-89.08664
776.561	-60.41508
776.752	-21.50367
776.943	13.3118
777.135	37.88742
777.326	-70.65492
777.517	-60.41508
777.708	-44.03133
777.899	41.98336
778.091	-15.35977
778.282	-44.03133
778.473	17.40773
778.664	-25.59961
778.855	74.75086
779.046	-13.3118
779.237	23.55164
779.428	-46.0793
779.62	-11.26383
779.811	-15.35977
780.002	1.02398
780.193	11.26383
780.384	11.26383
780.575	-9.21586
780.766	-66.55898
780.957	-35.83945
781.148	-13.3118
781.338	5.11992
781.529	-70.65492
781.72	3.07195
781.911	48.12727
782.102	-48.12727
782.293	-25.59961
782.484	-66.55898
782.674	-19.4557
782.865	-27.64758
783.056	31.74352
783.247	-3.07195
783.438	-41.98336
783.628	-68.60695
783.819	-5.11992
784.01	-50.17523
784.201	33.79148
784.391	-7.16789
784.582	-27.64758
784.773	-50.17523
784.963	1.02398
785.154	-1.02398
785.344	11.26383
785.535	17.40773
785.726	9.21586
785.916	21.50367
786.107	-15.35977
786.297	-72.70289
786.488	-23.55164
786.678	-11.26383
786.869	17.40773
787.059	15.35977
787.25	-31.74352
787.44	3.07195
787.631	-113.66227
787.821	1.02398
788.012	-41.98336
788.202	39.93539
788.392	-11.26383
788.583	5.11992
788.773	9.21586
788.963	-1.02398
789.154	9.21586
789.344	-56.31914
789.534	44.03133
789.724	-80.89477
789.915	80.89477
790.105	7.16789
790.295	13.3118
790.485	-54.27117
790.676	35.83945
790.866	-39.93539
791.056	68.60695
791.246	-7.16789
791.436	3.07195
791.626	-15.35977
791.816	-19.4557
792.007	-21.50367
792.197	5.11992
792.387	-23.55164
792.577	5.11992
792.767	-13.3118
792.957	29.69555
793.147	-39.93539
793.337	66.55898
793.527	-44.03133
793.717	3.07195
793.907	3.07195
794.097	-5.11992
794.287	-39.93539
794.476	66.55898
794.666	33.79148
794.856	-23.55164
795.046	-46.0793
795.236	17.40773
795.426	-41.98336
795.615	46.0793
795.805	31.74352
795.995	62.46305
796.185	-13.3118
796.375	-35.83945
796.564	-5.11992
796.754	-29.69555
796.944	1.02398
797.133	-13.3118
797.323	46.0793
797.513	-35.83945
797.702	-62.46305
797.892	-19.4557
798.082	-1.02398
798.271	119.80617
798.461	-31.74352
798.65	29.69555
798.84	-3.07195
799.029	39.93539
799.219	-1.02398
799.408	-9.21586
799.598	54.27117
799.787	15.35977
799.977	19.4557
800.166	1.02398
800.356	1.02398
800.545	35.83945
800.735	52.2232
800.924	58.36711
801.113	35.83945
801.303	44.03133
801.492	7.16789
801.681	-29.69555
801.871	1.02398
802.06	-9.21586
802.249	7.16789
802.438	1.02398
802.628	70.65492
802.817	25.59961
803.006	19.4557
803.195	37.88742
803.385	60.41508
803.574	41.98336
803.763	-82.94273
803.952	-3.07195
804.141	-9.21586
804.33	13.3118
804.519	29.69555
804.708	1.02398
804.897	-21.50367
805.087	9.21586
805.276	-23.55164
805.465	-37.88742
805.654	-31.74352
805.843	13.3118
806.032	-19.4557
806.22	-5.11992
806.409	3.07195
806.598	3.07195
806.787	-62.46305
806.976	-17.40773
807.165	-15.35977
807.354	-25.59961
807.543	-39.93539
807.732	-1.02398
807.92	7.16789
808.109	64.51102
808.298	27.64758
808.487	17.40773
808.676	35.83945
808.864	9.21586
809.053	-23.55164
809.242	50.17523
809.43	-21.50367
809.619	-74.75086
809.808	-13.3118
809.996	-7.16789
810.185	-21.50367
810.374	52.2232
810.562	50.17523
810.751	27.64758
810.939	-35.83945
811.128	-7.16789
811.317	1.02398
811.505	-13.3118
811.694	-35.83945
811.882	-31.74352
812.071	31.74352
812.259	-58.36711
812.448	-11.26383
812.636	-29.69555
812.824	62.46305
813.013	-39.93539
813.201	-13.3118
813.39	-39.93539
813.578	-35.83945
813.766	25.59961
813.955	31.74352
814.143	-50.17523
814.331	31.74352
814.519	-11.26383
814.708	-9.21586
814.896	19.4557
815.084	-23.55164
815.272	-9.21586
815.461	-13.3118
815.649	-19.4557
815.837	-31.74352
816.025	-33.79148
816.213	-60.41508
816.401	7.16789
816.59	-17.40773
816.778	37.88742
816.966	-62.46305
817.154	-9.21586
817.342	7.16789
817.53	11.26383
817.718	-29.69555
817.906	35.83945
818.094	-5.11992
818.282	-13.3118
818.47	52.2232
818.658	-11.26383
818.846	19.4557
819.034	-1.02398
819.222	-35.83945
819.409	-3.07195
819.597	-7.16789
819.785	41.98336
819.973	-39.93539
820.161	9.21586
820.349	-37.88742
820.536	-7.16789
820.724	-23.55164
820.912	3.07195
821.1	9.21586
821.287	-37.88742
821.475	31.74352
821.663	-39.93539
821.85	5.11992
822.038	7.16789
822.226	1.02398
822.413	-13.3118
822.601	-3.07195
822.789	11.26383
822.976	-48.12727
823.164	13.3118
823.351	-11.26383
823.539	19.4557
823.726	-13.3118
823.914	37.88742
824.101	-7.16789
824.289	-19.4557
824.476	-25.59961
824.664	13.3118
824.851	84.9907
825.039	7.16789
825.226	15.35977
825.413	46.0793
825.601	44.03133
825.788	3.07195
825.976	-52.2232
826.163	-44.03133
826.35	17.40773
826.537	-5.11992
826.725	62.46305
826.912	50.17523
827.099	-21.50367
827.286	39.93539
827.474	31.74352
827.661	1.02398
827.848	3.07195
828.035	64.51102
828.222	46.0793
828.409	-17.40773
828.597	-31.74352
828.784	21.50367
828.971	44.03133
829.158	46.0793
829.345	-58.36711
829.532	-9.21586
829.719	27.64758
829.906	-27.64758
830.093	-31.74352
830.28	21.50367
830.467	-21.50367
830.654	-35.83945
830.841	5.11992
831.028	-39.93539
831.215	3.07195
831.402	-93.18258
831.588	82.94273
831.775	21.50367
831.962	-31.74352
832.149	11.26383
832.336	-25.59961
832.522	-37.88742
832.709	9.21586
832.896	-27.64758
833.083	-19.4557
833.269	17.40773
833.456	-17.40773
833.643	19.4557
833.83	-50.17523
834.016	3.07195
834.203	-19.4557
834.39	-5.11992
834.576	-35.83945
834.763	1.02398
834.949	-41.98336
835.136	1.02398
835.322	27.64758
835.509	-58.36711
835.695	-19.4557
835.882	-11.26383
836.068	-29.69555
836.255	-64.51102
836.441	-54.27117
836.628	-56.31914
836.814	-68.60695
837.001	-19.4557
837.187	3.07195
837.373	52.2232
837.56	-17.40773
837.746	-3.07195
837.933	-46.0793
838.119	13.3118
838.305	-5.11992
838.491	-1.02398
838.678	-1.02398
838.864	50.17523
839.05	21.50367
839.236	5.11992
839.423	-37.88742
839.609	72.70289
839.795	-48.12727
839.981	39.93539
840.167	7.16789
840.353	39.93539
840.54	-31.74352
840.726	-60.41508
840.912	-11.26383
841.098	62.46305
841.284	-33.79148
841.47	7.16789
841.656	37.88742
841.842	-29.69555
842.028	27.64758
842.214	-48.12727
842.4	-87.03867
842.586	13.3118
842.772	-91.13461
842.958	-21.50367
843.143	3.07195
843.329	-17.40773
843.515	-15.35977
843.701	-41.98336
843.887	-7.16789
844.073	23.55164
844.258	-68.60695
844.444	-3.07195
844.63	1.02398
844.816	-27.64758
845.001	44.03133
845.187	-9.21586
845.373	-1.02398
845.559	-39.93539
845.744	-13.3118
845.93	-50.17523
846.115	-11.26383
846.301	-19.4557
846.487	-1.02398
846.672	78.8468
846.858	-19.4557
847.043	7.16789
847.229	23.55164
847.414	5.11992
847.6	-48.12727
847.785	-23.55164
847.971	-15.35977
848.156	1.02398
848.342	-5.11992
848.527	29.69555
848.713	17.40773
848.898	13.3118
849.083	17.40773
849.269	66.55898
849.454	-17.40773
849.639	7.16789
849.825	-27.64758
850.01	-3.07195
850.195	-62.46305
850.381	44.03133
850.566	-1.02398
850.751	-1.02398
850.936	54.27117
851.122	17.40773
851.307	-23.55164
851.492	46.0793
851.677	-25.59961
851.862	-5.11992
852.047	-62.46305
852.232	-23.55164
852.417	11.26383
852.603	-25.59961
852.788	-50.17523
852.973	-37.88742
853.158	17.40773
853.343	39.93539
853.528	56.31914
853.713	-19.4557
853.898	7.16789
854.083	-19.4557
854.267	41.98336
854.452	-5.11992
854.637	27.64758
854.822	-17.40773
855.007	-17.40773
855.192	7.16789
855.377	3.07195
855.562	44.03133
855.746	-37.88742
855.931	-25.59961
856.116	-50.17523
856.301	80.89477
856.485	15.35977
856.67	48.12727
856.855	35.83945
857.039	-39.93539
857.224	-33.79148
857.409	-39.93539
857.593	72.70289
857.778	15.35977
857.963	-56.31914
858.147	-27.64758
858.332	37.88742
858.516	-7.16789
858.701	13.3118
858.885	-17.40773
859.07	-64.51102
859.254	3.07195
859.439	-97.27852
859.623	-41.98336
859.808	64.51102
859.992	-50.17523
860.177	21.50367
860.361	-35.83945
860.545	-56.31914
860.73	27.64758
860.914	60.41508
861.098	76.79883
861.283	-15.35977
861.467	7.16789
861.651	-15.35977
861.836	15.35977
862.02	-11.26383
862.204	54.27117
862.388	33.79148
862.572	29.69555
862.757	-44.03133
862.941	13.3118
863.125	-37.88742
863.309	21.50367
863.493	-25.59961
863.677	58.36711
863.861	-13.3118
864.045	64.51102
864.23	56.31914
864.414	-17.40773
864.598	-48.12727
864.782	87.03867
864.966	-9.21586
865.15	7.16789
865.334	-19.4557
865.517	-5.11992
865.701	-15.35977
865.885	37.88742
866.069	64.51102
866.253	70.65492
866.437	5.11992
866.621	-39.93539
866.805	15.35977
866.988	-15.35977
867.172	-31.74352
867.356	-17.40773
867.54	17.40773
867.723	-23.55164
867.907	-27.64758
868.091	-19.4557
868.275	-41.98336
868.458	-27.64758
868.642	-19.4557
868.826	-46.0793
869.009	7.16789
869.193	-19.4557
869.376	5.11992
869.56	-13.3118
869.744	41.98336
869.927	-3.07195
870.111	13.3118
870.294	91.13461
870.478	31.74352
870.661	13.3118
870.845	-62.46305
871.028	-62.46305
871.211	-15.35977
871.395	9.21586
871.578	-19.4557
871.762	-7.16789
871.945	54.27117
872.128	-80.89477
872.312	-23.55164
872.495	-21.50367
872.678	19.4557
872.862	-7.16789
873.045	70.65492
873.228	9.21586
873.411	11.26383
873.595	23.55164
873.778	-13.3118
873.961	15.35977
874.144	-68.60695
874.327	54.27117
874.51	7.16789
874.694	35.83945
874.877	-5.11992
875.06	-31.74352
875.243	-56.31914
875.426	-1.02398
875.609	29.69555
875.792	-17.40773
875.975	-15.35977
876.158	11.26383
876.341	-15.35977
876.524	13.3118
876.707	27.64758
876.89	-41.98336
877.073	-27.64758
877.255	29.69555
877.438	-70.65492
877.621	13.3118
877.804	-29.69555
877.987	-72.70289
878.17	-46.0793
878.352	5.11992
878.535	9.21586
878.718	-35.83945
878.901	-13.3118
879.083	-17.40773
879.266	48.12727
879.449	62.46305
879.631	-17.40773
879.814	-29.69555
879.997	-27.64758
880.179	41.98336
880.362	-64.51102
880.545	5.11992
880.727	-23.55164
880.91	-21.50367
881.092	-17.40773
881.275	-46.0793
881.457	1.02398
881.64	-76.79883
881.822	-9.21586
882.005	-62.46305
882.187	3.07195
882.37	-82.94273
882.552	-21.50367
882.734	-27.64758
882.917	-19.4557
883.099	-13.3118
883.281	-27.64758
883.464	19.4557
883.646	9.21586
883.828	37.88742
884.011	1.02398
884.193	-41.98336
884.375	-1.02398
884.557	-11.26383
884.74	-11.26383
884.922	1.02398
885.104	58.36711
885.286	9.21586
885.468	41.98336
885.65	-1.02398
885.832	15.35977
886.015	-17.40773
886.197	-33.79148
886.379	33.79148
886.561	-62.46305
886.743	-15.35977
886.925	-29.69555
887.107	13.3118
887.289	-46.0793
887.471	17.40773
887.653	-58.36711
887.835	-19.4557
888.016	1.02398
888.198	15.35977
888.38	13.3118
888.562	46.0793
888.744	41.98336
888.926	-3.07195
889.108	-48.12727
889.289	9.21586
889.471	-44.03133
889.653	70.65492
889.835	15.35977
890.016	15.35977
890.198	27.64758
890.38	-121.85414
890.561	-50.17523
890.743	-27.64758
890.925	-37.88742
891.106	1.02398
891.288	5.11992
891.469	56.31914
891.651	74.75086
891.833	-13.3118
892.014	25.59961
892.196	33.79148
892.377	-21.50367
892.559	-15.35977
892.74	-56.31914
892.922	37.88742
893.103	-23.55164
893.284	-3.07195
893.466	-44.03133
893.647	11.26383
893.829	3.07195
894.01	-46.0793
894.191	-37.88742
894.373	15.35977
894.554	-35.83945
894.735	-13.3118
894.916	46.0793
895.098	68.60695
895.279	46.0793
895.46	-46.0793
895.641	-33.79148
895.823	31.74352
896.004	13.3118
896.185	-21.50367
896.366	1.02398
896.547	-35.83945
896.728	25.59961
896.909	5.11992
897.09	27.64758
897.271	35.83945
897.452	64.51102
897.633	5.11992
897.814	-5.11992
897.995	-9.21586
898.176	64.51102
898.357	-17.40773
898.538	11.26383
898.719	-60.41508
898.9	-80.89477
899.081	41.98336
899.262	-60.41508
899.443	25.59961
899.623	11.26383
899.804	-31.74352
899.985	21.50367
900.166	41.98336
900.347	-60.41508
900.527	-3.07195
900.708	-9.21586
900.889	-19.4557
901.07	-19.4557
901.25	5.11992
901.431	76.79883
901.611	37.88742
901.792	-66.55898
901.973	-44.03133
902.153	-3.07195
902.334	3.07195
902.514	33.79148
902.695	41.98336
902.876	27.64758
903.056	7.16789
903.237	-7.16789
903.417	-7.16789
903.597	-39.93539
903.778	54.27117
903.958	27.64758
904.139	21.50367
904.319	-87.03867
904.499	-44.03133
904.68	56.31914
904.86	-11.26383
905.04	-41.98336
905.221	80.89477
905.401	-66.55898
905.581	-11.26383
905.762	7.16789
905.942	23.55164
906.122	1.02398
906.302	76.79883
906.482	37.88742
906.663	17.40773
906.843	-3.07195
907.023	-11.26383
907.203	13.3118
907.383	21.50367
907.563	-7.16789
907.743	-68.60695
907.923	-19.4557
908.103	7.16789
908.283	-39.93539
908.463	-7.16789
908.643	82.94273
908.823	27.64758
909.003	9.21586
909.183	-35.83945
909.363	-15.35977
909.543	5.11992
909.723	9.21586
909.903	-11.26383
910.082	-17.40773
910.262	72.70289
910.442	1.02398
910.622	-5.11992
910.802	-39.93539
910.981	21.50367
911.161	-7.16789
911.341	-15.35977
911.521	-7.16789
911.7	1.02398
911.88	-50.17523
912.06	-66.55898
912.239	-31.74352
912.419	-17.40773
912.598	-78.8468
912.778	13.3118
912.958	5.11992
913.137	-84.9907
913.317	-56.31914
913.496	5.11992
913.676	-27.64758
913.855	25.59961
914.035	25.59961
914.214	-21.50367
914.393	-56.31914
914.573	39.93539
914.752	13.3118
914.932	37.88742
915.111	25.59961
915.29	62.46305
915.47	21.50367
915.649	27.64758
915.828	21.50367
916.008	-21.50367
916.187	62.46305
916.366	-48.12727
916.545	-3.07195
916.724	35.83945
916.904	107.51836
917.083	-11.26383
917.262	-70.65492
917.441	-21.50367
917.62	62.46305
917.799	-50.17523
917.978	5.11992
918.158	25.59961
918.337	-78.8468
918.516	21.50367
918.695	31.74352
918.874	3.07195
919.053	62.46305
919.232	-3.07195
919.41	19.4557
919.589	-27.64758
919.768	-33.79148
919.947	48.12727
920.126	-64.51102
920.305	33.79148
920.484	-21.50367
920.663	9.21586
920.841	-37.88742
921.02	44.03133
921.199	44.03133
921.378	-21.50367
921.556	-35.83945
921.735	-46.0793
921.914	1.02398
922.093	-27.64758
922.271	27.64758
922.45	1.02398
922.629	-39.93539
922.807	-25.59961
922.986	-21.50367
923.164	-31.74352
923.343	-60.41508
923.521	-7.16789
923.7	-50.17523
923.878	-25.59961
924.057	-7.16789
924.235	-15.35977
924.414	-33.79148
924.592	39.93539
924.771	56.31914
924.949	13.3118
925.128	-11.26383
925.306	31.74352
925.484	15.35977
925.663	-35.83945
925.841	-37.88742
926.019	35.83945
926.198	-7.16789
926.376	56.31914
926.554	-25.59961
926.732	-50.17523
926.91	3.07195
927.089	3.07195
927.267	33.79148
927.445	-19.4557
927.623	-56.31914
927.801	-19.4557
927.979	-13.3118
928.158	60.41508
928.336	3.07195
928.514	-25.59961
928.692	23.55164
928.87	-41.98336
929.048	21.50367
929.226	-37.88742
929.404	46.0793
929.582	25.59961
929.76	5.11992
929.937	31.74352
930.115	-25.59961
930.293	35.83945
930.471	-33.79148
930.649	1.02398
930.827	50.17523
931.005	-9.21586
931.182	50.17523
931.36	21.50367
931.538	3.07195
931.716	-9.21586
931.893	1.02398
932.071	39.93539
932.249	-113.66227
932.426	33.79148
932.604	5.11992
932.782	-31.74352
932.959	3.07195
933.137	13.3118
933.315	9.21586
933.492	-17.40773
933.67	-9.21586
933.847	-60.41508
934.025	39.93539
934.202	54.27117
934.38	37.88742
934.557	-11.26383
934.735	1.02398
934.912	-41.98336
935.089	-3.07195
935.267	-58.36711
935.444	-25.59961
935.622	-25.59961
935.799	-33.79148
935.976	-41.98336
936.154	5.11992
936.331	15.35977
936.508	25.59961
936.685	-72.70289
936.863	1.02398
937.04	-9.21586
937.217	-7.16789
937.394	-3.07195
937.571	-66.55898
937.748	7.16789
937.926	-9.21586
938.103	-35.83945
938.28	-25.59961
938.457	-35.83945
938.634	-19.4557
938.811	56.31914
938.988	17.40773
939.165	-41.98336
939.342	-35.83945
939.519	-17.40773
939.696	46.0793
939.873	-39.93539
940.05	-19.4557
940.227	84.9907
940.404	62.46305
940.58	27.64758
940.757	27.64758
940.934	-41.98336
941.111	1.02398
941.288	31.74352
941.464	-21.50367
941.641	-52.2232
941.818	-21.50367
941.995	-39.93539
942.171	-9.21586
942.348	-68.60695
942.525	-62.46305
942.701	29.69555
942.878	-66.55898
943.055	-7.16789
943.231	17.40773
943.408	64.51102
943.584	25.59961
943.761	-15.35977
943.937	-58.36711
944.114	-74.75086
944.29	50.17523
944.467	56.31914
944.643	-1.02398
944.82	33.79148
944.996	3.07195
945.173	64.51102
945.349	-15.35977
945.525	21.50367
945.702	39.93539
945.878	44.03133
946.054	-15.35977
946.231	41.98336
946.407	-13.3118
946.583	1.02398
946.759	54.27117
946.936	9.21586
947.112	5.11992
947.288	46.0793
947.464	-74.75086
947.64	-68.60695
947.816	-39.93539
947.992	31.74352
948.169	35.83945
948.345	5.11992
948.521	7.16789
948.697	-11.26383
948.873	-31.74352
949.049	-25.59961
949.225	46.0793
949.401	-9.21586
949.577	3.07195
949.753	-25.59961
949.929	-35.83945
950.104	111.6143
950.28	13.3118
950.456	-25.59961
950.632	19.4557
950.808	17.40773
950.984	37.88742
951.159	-25.59961
951.335	84.9907
951.511	74.75086
951.687	-54.27117
951.862	31.74352
952.038	50.17523
952.214	48.12727
952.39	33.79148
952.565	-27.64758
952.741	-39.93539
952.916	-15.35977
953.092	48.12727
953.268	29.69555
953.443	21.50367
953.619	-21.50367
953.794	-37.88742
953.97	9.21586
954.145	54.27117
954.321	1.02398
954.496	-13.3118
954.672	23.55164
954.847	-39.93539
955.022	-37.88742
955.198	-15.35977
955.373	-17.40773
955.548	-9.21586
955.724	-31.74352
955.899	29.69555
956.074	7.16789
956.25	25.59961
956.425	-3.07195
956.6	25.59961
956.775	-70.65492
956.951	-44.03133
957.126	-11.26383
957.301	-13.3118
957.476	-46.0793
957.651	-23.55164
957.826	11.26383
958.001	-29.69555
958.176	17.40773
958.352	31.74352
958.527	23.55164
958.702	-1.02398
958.877	13.3118
959.052	-39.93539
959.227	31.74352
959.401	7.16789
959.576	-44.03133
959.751	-23.55164
959.926	-25.59961
960.101	-70.65492
960.276	-3.07195
960.451	-5.11992
960.626	21.50367
960.8	-5.11992
960.975	33.79148
961.15	-15.35977
961.325	89.08664
961.499	-27.64758
961.674	-25.59961
961.849	-29.69555
962.023	13.3118
962.198	15.35977
962.373	56.31914
962.547	19.4557
962.722	-50.17523
962.897	25.59961
963.071	-9.21586
963.246	13.3118
963.42	9.21586
963.595	-13.3118
963.769	44.03133
963.944	27.64758
964.118	33.79148
964.293	11.26383
964.467	31.74352
964.641	82.94273
964.816	-21.50367
964.99	-15.35977
965.165	37.88742
965.339	-1.02398
965.513	-23.55164
965.687	-21.50367
965.862	-37.88742
966.036	-19.4557
966.21	-9.21586
966.384	56.31914
966.559	13.3118
966.733	33.79148
966.907	-97.27852
967.081	-11.26383
967.255	35.83945
967.429	-25.59961
967.604	-17.40773
967.778	33.79148
967.952	-44.03133
968.126	-44.03133
968.3	-11.26383
968.474	17.40773
968.648	-33.79148
968.822	-58.36711
968.996	-1.02398
969.17	-44.03133
969.343	-35.83945
969.517	-11.26383
969.691	50.17523
969.865	58.36711
970.039	-15.35977
970.213	7.16789
970.387	-25.59961
970.56	-9.21586
970.734	70.65492
970.908	-33.79148
971.082	-66.55898
971.255	37.88742
971.429	-54.27117
971.603	-62.46305
971.776	-7.16789
971.95	66.55898
972.124	-25.59961
972.297	-56.31914
972.471	29.69555
972.644	54.27117
972.818	52.2232
972.991	-21.50367
973.165	39.93539
973.338	-62.46305
973.512	62.46305
973.685	41.98336
973.859	62.46305
974.032	-80.89477
974.206	62.46305
974.379	-29.69555
974.552	-19.4557
974.726	27.64758
974.899	35.83945
975.072	-21.50367
975.246	-7.16789
975.419	-5.11992
975.592	-25.59961
975.765	9.21586
975.939	62.46305
976.112	-35.83945
976.285	-5.11992
976.458	-3.07195
976.631	-17.40773
976.804	27.64758
976.977	-35.83945
977.151	11.26383
977.324	25.59961
977.497	33.79148
977.67	17.40773
977.843	5.11992
978.016	3.07195
978.189	-5.11992
978.362	-5.11992
978.535	-9.21586
978.707	9.21586
978.88	21.50367
979.053	41.98336
979.226	21.50367
979.399	74.75086
979.572	93.18258
979.745	35.83945
979.917	-31.74352
980.09	-5.11992
980.263	-25.59961
980.436	27.64758
980.608	17.40773
980.781	-11.26383
980.954	-39.93539
981.126	35.83945
981.299	44.03133
981.472	-39.93539
981.644	13.3118
981.817	58.36711
981.989	-21.50367
982.162	-39.93539
982.335	-33.79148
982.507	3.07195
982.68	5.11992
982.852	-52.2232
983.024	-19.4557
983.197	-9.21586
983.369	33.79148
983.542	25.59961
983.714	-64.51102
983.886	-7.16789
984.059	-25.59961
984.231	19.4557
984.403	-13.3118
984.576	17.40773
984.748	-15.35977
984.92	-13.3118
985.093	21.50367
985.265	15.35977
985.437	35.83945
985.609	-15.35977
985.781	-48.12727
985.953	58.36711
986.126	31.74352
986.298	13.3118
986.47	-54.27117
986.642	33.79148
986.814	44.03133
986.986	19.4557
987.158	-41.98336
987.33	19.4557
987.502	-15.35977
987.674	-29.69555
987.846	-21.50367
988.018	70.65492
988.19	7.16789
988.361	-33.79148
988.533	-66.55898
988.705	46.0793
988.877	-35.83945
989.049	-11.26383
989.221	-11.26383
989.392	-37.88742
989.564	-3.07195
989.736	-31.74352
989.908	3.07195
990.079	13.3118
990.251	-3.07195
990.423	35.83945
990.594	-25.59961
990.766	17.40773
990.937	5.11992
991.109	7.16789
991.281	-31.74352
991.452	1.02398
991.624	-58.36711
991.795	11.26383
991.967	-25.59961
992.138	-17.40773
992.31	9.21586
992.481	3.07195
992.652	-3.07195
992.824	-15.35977
992.995	-1.02398
993.167	-1.02398
993.338	9.21586
993.509	-66.55898
993.681	-9.21586
993.852	74.75086
994.023	5.11992
994.194	1.02398
994.366	-48.12727
994.537	3.07195
994.708	25.59961
994.879	-9.21586
995.05	-15.35977
995.221	-25.59961
995.393	19.4557
995.564	31.74352
995.735	-27.64758
995.906	-56.31914
996.077	-64.51102
996.248	-25.59961
996.419	70.65492
996.59	64.51102
996.761	60.41508
996.932	-58.36711
997.103	-9.21586
997.274	11.26383
997.444	-13.3118
997.615	-46.0793
997.786	-39.93539
997.957	7.16789
998.128	-48.12727
998.299	19.4557
998.469	-80.89477
998.64	7.16789
998.811	23.55164
998.982	-31.74352
999.152	29.69555
999.323	-27.64758
999.494	-48.12727
999.664	44.03133
999.835	-5.11992
1000.006	-23.55164
1000.176	72.70289
1000.347	-15.35977
1000.517	-33.79148
1000.688	-37.88742
1000.858	64.51102
1001.029	5.11992
1001.199	5.11992
1001.37	-48.12727
1001.54	-80.89477
1001.711	-7.16789
1001.881	-13.3118
1002.051	-29.69555
1002.222	25.59961
1002.392	44.03133
1002.562	41.98336
1002.733	-13.3118
1002.903	-7.16789
1003.073	13.3118
1003.244	-41.98336
1003.414	15.35977
1003.584	23.55164
1003.754	5.11992
1003.924	-5.11992
1004.094	-48.12727
1004.265	44.03133
1004.435	35.83945
1004.605	13.3118
1004.775	3.07195
1004.945	7.16789
1005.115	46.0793
1005.285	-66.55898
1005.455	33.79148
1005.625	19.4557
1005.795	-11.26383
1005.965	-5.11992
1006.135	-58.36711
1006.305	-21.50367
1006.475	-50.17523
1006.645	-50.17523
1006.814	-3.07195
1006.984	21.50367
1007.154	-3.07195
1007.324	-50.17523
1007.494	25.59961
1007.663	-9.21586
1007.833	27.64758
1008.003	33.79148
1008.172	-15.35977
1008.342	-7.16789
1008.512	-33.79148
1008.681	44.03133
1008.851	11.26383
1009.021	9.21586
1009.19	1.02398
1009.36	58.36711
1009.529	-19.4557
1009.699	-3.07195
1009.868	-25.59961
1010.038	-54.27117
1010.207	33.79148
1010.377	23.55164
1010.546	7.16789
1010.716	-3.07195
1010.885	3.07195
1011.054	25.59961
1011.224	-7.16789
1011.393	70.65492
1011.562	35.83945
1011.732	-35.83945
1011.901	33.79148
1012.07	-15.35977
1012.24	-5.11992
1012.409	44.03133
1012.578	11.26383
1012.747	-31.74352
1012.916	25.59961
1013.085	-7.16789
1013.255	-9.21586
1013.424	31.74352
1013.593	-3.07195
1013.762	11.26383
1013.931	-29.69555
1014.1	21.50367
1014.269	-78.8468
1014.438	7.16789
1014.607	13.3118
1014.776	-54.27117
1014.945	46.0793
1015.114	-60.41508
1015.283	-1.02398
1015.451	17.40773
1015.62	33.79148
1015.789	-15.35977
1015.958	1.02398
1016.127	31.74352
1016.296	-5.11992
1016.464	-44.03133
1016.633	44.03133
1016.802	-29.69555
1016.971	-33.79148
1017.139	35.83945
1017.308	37.88742
1017.477	31.74352
1017.645	31.74352
1017.814	-21.50367
1017.982	-15.35977
1018.151	-39.93539
1018.319	-1.02398
1018.488	-19.4557
1018.657	15.35977
1018.825	-27.64758
1018.993	29.69555
1019.162	-3.07195
1019.33	9.21586
1019.499	-15.35977
1019.667	19.4557
1019.836	-29.69555
1020.004	41.98336
1020.172	21.50367
1020.341	33.79148
1020.509	68.60695
1020.677	-19.4557
1020.845	-48.12727
1021.014	-1.02398
1021.182	-17.40773
1021.35	29.69555
1021.518	25.59961
1021.686	41.98336
1021.855	-21.50367
1022.023	-33.79148
1022.191	48.12727
1022.359	82.94273
1022.527	23.55164
1022.695	-17.40773
1022.863	-3.07195
1023.031	25.59961
1023.199	62.46305
1023.367	-15.35977
1023.535	13.3118
1023.703	-5.11992
1023.871	-15.35977
1024.039	-15.35977
1024.207	3.07195
1024.375	23.55164
1024.542	-27.64758
1024.71	3.07195
1024.878	1.02398
1025.046	-82.94273
1025.213	-66.55898
1025.381	-64.51102
1025.549	-3.07195
1025.717	91.13461
1025.884	21.50367
1026.052	50.17523
1026.22	-5.11992
1026.387	50.17523
1026.555	-35.83945
1026.722	7.16789
1026.89	25.59961
1027.058	-33.79148
1027.225	29.69555
1027.393	13.3118
1027.56	1.02398
1027.728	56.31914
1027.895	-19.4557
1028.062	-68.60695
1028.23	-9.21586
1028.397	13.3118
1028.565	-66.55898
1028.732	-29.69555
1028.899	7.16789
1029.067	15.35977
1029.234	-1.02398
1029.401	-13.3118
1029.568	3.07195
1029.736	31.74352
1029.903	11.26383
1030.07	5.11992
1030.237	-31.74352
1030.404	-64.51102
1030.572	-37.88742
1030.739	7.16789
1030.906	11.26383
1031.073	-15.35977
1031.24	9.21586
1031.407	17.40773
1031.574	-44.03133
1031.741	23.55164
1031.908	-41.98336
1032.075	-54.27117
1032.242	9.21586
1032.409	-1.02398
1032.576	29.69555
1032.743	-3.07195
1032.91	-13.3118
1033.076	-25.59961
1033.243	-50.17523
1033.41	-3.07195
1033.577	-39.93539
1033.744	39.93539
1033.91	-13.3118
1034.077	-15.35977
1034.244	-3.07195
1034.41	-3.07195
1034.577	33.79148
1034.744	7.16789
1034.91	-93.18258
1035.077	13.3118
1035.244	1.02398
1035.41	66.55898
1035.577	-7.16789
1035.743	-74.75086
1035.91	5.11992
1036.076	-15.35977
1036.243	3.07195
1036.409	-1.02398
1036.576	39.93539
1036.742	-44.03133
1036.908	-58.36711
1037.075	-11.26383
1037.241	35.83945
1037.408	7.16789
1037.574	-52.2232
1037.74	31.74352
1037.906	-5.11992
1038.073	3.07195
1038.239	17.40773
1038.405	62.46305
1038.571	9.21586
1038.738	-39.93539
1038.904	21.50367
1039.07	-105.47039
1039.236	-78.8468
1039.402	-25.59961
1039.568	-3.07195
1039.734	11.26383
1039.9	5.11992
1040.066	-9.21586
1040.232	11.26383
1040.398	-5.11992
1040.564	-9.21586
1040.73	-52.2232
1040.896	39.93539
1041.062	31.74352
1041.228	64.51102
1041.394	29.69555
1041.56	78.8468
1041.725	-7.16789
1041.891	-3.07195
1042.057	9.21586
1042.223	41.98336
1042.389	-27.64758
1042.554	-21.50367
1042.72	68.60695
1042.886	78.8468
1043.051	-5.11992
1043.217	35.83945
1043.383	-54.27117
1043.548	1.02398
1043.714	44.03133
1043.879	-48.12727
1044.045	29.69555
1044.21	-11.26383
1044.376	25.59961
1044.541	33.79148
1044.707	13.3118
1044.872	-1.02398
1045.038	9.21586
1045.203	39.93539
1045.369	-48.12727
1045.534	-31.74352
1045.699	9.21586
1045.865	-1.02398
1046.03	-29.69555
1046.195	-15.35977
1046.361	56.31914
1046.526	62.46305
1046.691	-15.35977
1046.856	-11.26383
1047.021	3.07195
1047.187	-15.35977
1047.352	-3.07195
1047.517	-33.79148
1047.682	25.59961
1047.847	-3.07195
1048.012	17.40773
1048.177	62.46305
1048.342	105.47039
1048.507	-35.83945
1048.672	21.50367
1048.837	21.50367
1049.002	-76.79883
1049.167	-44.03133
1049.332	-29.69555
1049.497	-11.26383
1049.662	-76.79883
1049.827	21.50367
1049.992	46.0793
1050.156	19.4557
1050.321	31.74352
1050.486	-7.16789
1050.651	33.79148
1050.816	13.3118
1050.98	17.40773
1051.145	50.17523
1051.31	-17.40773
1051.474	-56.31914
1051.639	-1.02398
1051.804	-11.26383
1051.968	-68.60695
1052.133	7.16789
1052.297	-31.74352
1052.462	7.16789
1052.626	7.16789
1052.791	-50.17523
1052.955	-23.55164
1053.12	-17.40773
1053.284	-23.55164
1053.449	9.21586
1053.613	3.07195
1053.777	76.79883
1053.942	-21.50367
1054.106	-54.27117
1054.27	13.3118
1054.435	89.08664
1054.599	37.88742
1054.763	13.3118
1054.928	-25.59961
1055.092	-9.21586
1055.256	19.4557
1055.42	9.21586
1055.584	-46.0793
1055.748	-39.93539
1055.913	29.69555
1056.077	-13.3118
1056.241	-7.16789
1056.405	15.35977
1056.569	17.40773
1056.733	17.40773
1056.897	-44.03133
1057.061	5.11992
1057.225	35.83945
1057.389	11.26383
1057.553	41.98336
1057.717	-13.3118
1057.88	23.55164
1058.044	1.02398
1058.208	-35.83945
1058.372	-7.16789
1058.536	-66.55898
1058.7	-7.16789
1058.863	-35.83945
1059.027	35.83945
1059.191	-17.40773
1059.355	-52.2232
1059.518	15.35977
1059.682	-58.36711
1059.846	-25.59961
1060.009	-15.35977
1060.173	-56.31914
1060.336	-19.4557
1060.5	-54.27117
1060.663	-19.4557
1060.827	-54.27117
1060.99	-60.41508
1061.154	33.79148
1061.317	19.4557
1061.481	-39.93539
1061.644	-56.31914
1061.808	70.65492
1061.971	-48.12727
1062.134	15.35977
1062.298	17.40773
1062.461	11.26383
1062.624	-72.70289
1062.788	52.2232
1062.951	1.02398
1063.114	-7.16789
1063.277	-7.16789
1063.441	-41.98336
1063.604	27.64758
1063.767	-93.18258
1063.93	17.40773
1064.093	7.16789
1064.256	-41.98336
1064.419	-56.31914
1064.582	-41.98336
1064.745	11.26383
1064.908	-56.31914
1065.071	-13.3118
1065.234	-13.3118
1065.397	72.70289
1065.56	-1.02398
1065.723	17.40773
1065.886	-19.4557
1066.049	-9.21586
1066.212	-23.55164
1066.375	29.69555
1066.537	-19.4557
1066.7	27.64758
1066.863	-17.40773
1067.026	11.26383
1067.189	-13.3118
1067.351	-52.2232
1067.514	-78.8468
1067.677	111.6143
1067.839	-7.16789
1068.002	39.93539
1068.165	-60.41508
1068.327	7.16789
1068.49	13.3118
1068.652	41.98336
1068.815	91.13461
1068.977	56.31914
1069.14	-7.16789
1069.302	-17.40773
1069.465	-105.47039
1069.627	-13.3118
1069.79	-7.16789
1069.952	76.79883
1070.114	-25.59961
1070.277	21.50367
1070.439	-27.64758
1070.601	-15.35977
1070.764	-76.79883
1070.926	19.4557
1071.088	54.27117
1071.25	-31.74352
1071.413	-27.64758
1071.575	-9.21586
1071.737	-19.4557
1071.899	-25.59961
1072.061	-1.02398
1072.223	-64.51102
1072.385	72.70289
1072.547	-7.16789
1072.71	-5.11992
1072.872	9.21586
1073.034	-46.0793
1073.196	21.50367
1073.358	15.35977
1073.519	3.07195
1073.681	9.21586
1073.843	-76.79883
1074.005	-27.64758
1074.167	-17.40773
1074.329	7.16789
1074.491	-5.11992
1074.652	9.21586
1074.814	-39.93539
1074.976	-31.74352
1075.138	13.3118
1075.299	-27.64758
1075.461	-9.21586
1075.623	-25.59961
1075.785	27.64758
1075.946	-33.79148
1076.108	-31.74352
1076.269	-15.35977
1076.431	-29.69555
1076.593	-76.79883
1076.754	27.64758
1076.916	72.70289
1077.077	15.35977
1077.239	-3.07195
1077.4	7.16789
1077.561	68.60695
1077.723	-17.40773
1077.884	-5.11992
1078.046	-1.02398
1078.207	-25.59961
1078.368	-46.0793
1078.53	-44.03133
1078.691	-52.2232
1078.852	-35.83945
1079.013	-3.07195
1079.175	68.60695
1079.336	60.41508
1079.497	27.64758
1079.658	1.02398
1079.819	11.26383
1079.981	17.40773
1080.142	25.59961
1080.303	11.26383
1080.464	62.46305
1080.625	13.3118
1080.786	-44.03133
1080.947	-13.3118
1081.108	-31.74352
1081.269	27.64758
1081.43	-29.69555
1081.591	-17.40773
1081.752	-60.41508
1081.912	-7.16789
1082.073	-21.50367
1082.234	-9.21586
1082.395	-68.60695
1082.556	-23.55164
1082.717	-27.64758
1082.877	-46.0793
1083.038	109.56633
1083.199	39.93539
1083.359	17.40773
1083.52	-35.83945
1083.681	50.17523
1083.841	50.17523
1084.002	37.88742
1084.163	-62.46305
1084.323	62.46305
1084.484	23.55164
1084.644	-35.83945
1084.805	19.4557
1084.965	-9.21586
1085.126	-46.0793
1085.286	56.31914
1085.447	-68.60695
1085.607	13.3118
1085.767	41.98336
1085.928	-68.60695
1086.088	1.02398
1086.249	23.55164
1086.409	-60.41508
1086.569	-13.3118
1086.729	1.02398
1086.89	5.11992
1087.05	-62.46305
1087.21	13.3118
1087.37	-3.07195
1087.53	-7.16789
1087.691	23.55164
1087.851	-13.3118
1088.011	1.02398
1088.171	21.50367
1088.331	5.11992
1088.491	44.03133
1088.651	-19.4557
1088.811	27.64758
1088.971	9.21586
1089.131	-27.64758
1089.291	-7.16789
1089.451	-64.51102
1089.611	-23.55164
1089.771	76.79883
1089.93	-3.07195
1090.09	25.59961
1090.25	-50.17523
1090.41	-29.69555
1090.57	80.89477
1090.729	-72.70289
1090.889	27.64758
1091.049	-7.16789
1091.208	-35.83945
1091.368	31.74352
1091.528	19.4557
1091.687	-3.07195
1091.847	11.26383
1092.007	-58.36711
1092.166	-7.16789
1092.326	-41.98336
1092.485	17.40773
1092.645	-31.74352
1092.804	3.07195
1092.964	-109.56633
1093.123	23.55164
1093.282	-50.17523
1093.442	37.88742
1093.601	13.3118
1093.761	31.74352
1093.92	23.55164
1094.079	-23.55164
1094.239	27.64758
1094.398	-17.40773
1094.557	21.50367
1094.716	17.40773
1094.876	-5.11992
1095.035	13.3118
1095.194	17.40773
1095.353	50.17523
1095.512	39.93539
1095.671	11.26383
1095.83	-13.3118
1095.989	-13.3118
1096.148	52.2232
1096.307	-11.26383
1096.466	-3.07195
1096.625	-23.55164
1096.784	-9.21586
1096.943	-1.02398
1097.102	-48.12727
1097.261	35.83945
1097.42	-5.11992
1097.579	-13.3118
1097.738	9.21586
1097.897	-70.65492
1098.055	-11.26383
1098.214	-1.02398
1098.373	27.64758
1098.532	52.2232
1098.69	44.03133
1098.849	5.11992
1099.008	48.12727
1099.166	31.74352
1099.325	-41.98336
1099.484	-115.71023
1099.642	37.88742
1099.801	1.02398
1099.959	1.02398
1100.118	-19.4557
1100.276	-1.02398
1100.435	1.02398
1100.593	-33.79148
1100.752	-23.55164
1100.91	-9.21586
1101.068	25.59961
1101.227	-78.8468
1101.385	23.55164
1101.544	27.64758
1101.702	70.65492
1101.86	1.02398
1102.018	3.07195
1102.177	-21.50367
1102.335	70.65492
1102.493	62.46305
1102.651	46.0793
1102.809	-44.03133
1102.968	-3.07195
1103.126	-21.50367
1103.284	74.75086
1103.442	-23.55164
1103.6	33.79148
1103.758	46.0793
1103.916	35.83945
1104.074	35.83945
1104.232	95.23055
1104.39	-121.85414
1104.548	21.50367
1104.706	17.40773
1104.864	35.83945
1105.022	-25.59961
1105.179	-7.16789
1105.337	39.93539
1105.495	-19.4557
1105.653	9.21586
1105.811	41.98336
1105.968	33.79148
1106.126	-9.21586
1106.284	-35.83945
1106.441	-17.40773
1106.599	-64.51102
1106.757	5.11992
1106.914	-41.98336
1107.072	-52.2232
1107.23	-7.16789
1107.387	52.2232
1107.545	7.16789
1107.702	-39.93539
1107.86	-11.26383
1108.017	-19.4557
1108.175	56.31914
1108.332	11.26383
1108.489	-70.65492
1108.647	29.69555
1108.804	-48.12727
1108.962	-19.4557
1109.119	-1.02398
1109.276	-27.64758
1109.433	29.69555
1109.591	62.46305
1109.748	50.17523
1109.905	17.40773
1110.062	-9.21586
1110.22	3.07195
1110.377	-23.55164
1110.534	-48.12727
1110.691	-13.3118
1110.848	-11.26383
1111.005	1.02398
1111.162	1.02398
1111.319	-7.16789
1111.476	25.59961
1111.633	33.79148
1111.79	15.35977
1111.947	29.69555
1112.104	33.79148
1112.261	3.07195
1112.418	7.16789
1112.575	-54.27117
1112.732	-64.51102
1112.888	39.93539
1113.045	-15.35977
1113.202	-19.4557
1113.359	1.02398
1113.515	-19.4557
1113.672	7.16789
1113.829	19.4557
1113.985	-15.35977
1114.142	-48.12727
1114.299	29.69555
1114.455	-87.03867
1114.612	3.07195
1114.769	-62.46305
1114.925	19.4557
1115.082	-15.35977
1115.238	33.79148
1115.395	-44.03133
1115.551	-68.60695
1115.707	-48.12727
1115.864	-15.35977
1116.02	-23.55164
1116.177	13.3118
1116.333	17.40773
1116.489	1.02398
1116.646	3.07195
1116.802	44.03133
1116.958	44.03133
1117.114	-37.88742
1117.271	-21.50367
1117.427	-72.70289
1117.583	37.88742
1117.739	-19.4557
1117.895	39.93539
1118.051	-3.07195
1118.208	19.4557
1118.364	-62.46305
1118.52	-3.07195
1118.676	29.69555
1118.832	-11.26383
1118.988	-39.93539
1119.144	-13.3118
1119.3	-54.27117
1119.456	25.59961
1119.611	-21.50367
1119.767	35.83945
1119.923	50.17523
1120.079	13.3118
1120.235	17.40773
1120.391	7.16789
1120.546	-70.65492
1120.702	25.59961
1120.858	19.4557
1121.014	7.16789
1121.169	15.35977
1121.325	-68.60695
1121.481	-27.64758
1121.636	23.55164
1121.792	48.12727
1121.947	-21.50367
1122.103	-11.26383
1122.259	-15.35977
1122.414	21.50367
1122.57	19.4557
1122.725	-35.83945
1122.881	-37.88742
1123.036	-35.83945
1123.191	44.03133
1123.347	-15.35977
1123.502	60.41508
1123.657	-7.16789
1123.813	70.65492
1123.968	52.2232
1124.123	-39.93539
1124.279	23.55164
1124.434	-15.35977
1124.589	-33.79148
1124.744	-37.88742
1124.9	33.79148
1125.055	-84.9907
1125.21	35.83945
1125.365	27.64758
1125.52	1.02398
1125.675	-5.11992
1125.83	-9.21586
1125.985	-41.98336
1126.14	27.64758
1126.295	9.21586
1126.45	-46.0793
1126.605	68.60695
